SpectraSuite Datei
++++++++++++++++++++++++++++++++++++
Datum: Mon Nov 11 15:03:46 CET 2019
Benutzer: user
Dark-Spektrum vorhanden: Ja
Referenz-Spektrum vorhanden: Nein
Zahl der probierten Teilspektren: 1
Spektrometer: USB4F04607
Integrationszeit (usec): 120000 (USB4F04607)
Spektren Durchschnitt berechnet: 4 (USB4F04607)
Boxcar Glättung: 0 (USB4F04607)
Dunkelstromkorrektur: Nein (USB4F04607)
Puls/Lampe aktiviert: Nein (USB4F04607)
Correct for Detector Non-linearity: Nein (USB4F04607)
Streulichtkorrektur: Nein (USB4F04607)
Anzahl Pixel in verarbeitetem Spektrum: 3648
>>>>>Begin Processed Spectral Data<<<<<
177,66	-5,12
177,88	-5,12
178,10	-5,12
178,32	34,82
178,53	11,78
178,75	-4,10
178,97	-52,22
179,19	9,22
179,40	-3,58
179,62	-2,56
179,84	-28,16
180,05	-45,06
180,27	24,06
180,49	23,55
180,71	-15,36
180,92	-47,10
181,14	-20,99
181,36	71,17
181,58	7,68
181,79	57,34
182,01	-18,43
182,23	80,38
182,44	70,14
182,66	37,38
182,88	47,62
183,10	51,71
183,31	12,29
183,53	22,53
183,75	81,41
183,96	3,58
184,18	11,78
184,40	3,58
184,62	6,66
184,83	42,50
185,05	34,82
185,27	53,76
185,48	45,57
185,70	-8,19
185,92	9,22
186,14	18,43
186,35	43,52
186,57	40,45
186,79	43,52
187,00	34,30
187,22	25,60
187,44	58,88
187,66	31,74
187,87	18,43
188,09	6,14
188,31	-9,73
188,52	36,86
188,74	-12,29
188,96	48,64
189,17	38,40
189,39	56,32
189,61	35,33
189,82	57,34
190,04	18,94
190,26	33,79
190,48	92,67
190,69	66,56
190,91	54,78
191,13	32,77
191,34	84,48
191,56	18,94
191,78	64,51
191,99	39,42
192,21	18,94
192,43	11,78
192,64	24,58
192,86	44,03
193,08	23,04
193,29	74,75
193,51	49,15
193,73	31,23
193,94	6,14
194,16	81,92
194,38	42,50
194,60	51,71
194,81	19,97
195,03	45,06
195,25	50,18
195,46	46,59
195,68	12,80
195,90	60,42
196,11	52,74
196,33	109,05
196,55	58,37
196,76	28,67
196,98	63,49
197,20	62,46
197,41	34,82
197,63	55,30
197,85	68,09
198,06	17,92
198,28	49,15
198,50	44,54
198,71	50,69
198,93	25,09
199,14	10,75
199,36	2,05
199,58	51,71
199,79	20,99
200,01	20,48
200,23	30,72
200,44	73,21
200,66	42,50
200,88	41,47
201,09	15,87
201,31	40,45
201,53	28,16
201,74	-1,02
201,96	38,91
202,18	59,90
202,39	11,26
202,61	17,41
202,83	31,74
203,04	33,28
203,26	41,98
203,47	47,62
203,69	22,02
203,91	38,91
204,12	57,86
204,34	48,13
204,56	29,70
204,77	1,02
204,99	29,18
205,21	45,06
205,42	84,99
205,64	-23,55
205,85	55,30
206,07	-11,78
206,29	37,38
206,50	14,34
206,72	48,13
206,94	3,07
207,15	9,73
207,37	27,65
207,58	20,48
207,80	24,06
208,02	34,82
208,23	2,56
208,45	75,77
208,67	32,26
208,88	51,71
209,10	50,18
209,31	22,02
209,53	80,38
209,75	99,33
209,96	29,70
210,18	-13,31
210,40	91,65
210,61	54,27
210,83	43,01
211,04	47,62
211,26	48,13
211,48	72,19
211,69	26,62
211,91	46,59
212,12	28,67
212,34	10,75
212,56	49,15
212,77	5,12
212,99	55,81
213,20	77,82
213,42	-14,34
213,64	77,31
213,85	76,29
214,07	50,18
214,28	18,94
214,50	31,74
214,72	34,30
214,93	91,65
215,15	83,97
215,36	41,98
215,58	76,80
215,80	6,14
216,01	14,85
216,23	34,82
216,44	91,13
216,66	13,31
216,88	46,08
217,09	37,38
217,31	76,80
217,52	6,66
217,74	63,49
217,95	11,78
218,17	38,91
218,39	11,78
218,60	57,34
218,82	4,10
219,03	-4,61
219,25	24,58
219,47	8,19
219,68	56,32
219,90	55,30
220,11	63,49
220,33	60,42
220,54	42,50
220,76	35,84
220,98	14,85
221,19	114,69
221,41	53,76
221,62	44,54
221,84	31,74
222,05	41,98
222,27	51,20
222,48	74,24
222,70	42,50
222,92	67,07
223,13	32,26
223,35	17,41
223,56	9,73
223,78	37,89
223,99	42,50
224,21	31,23
224,43	3,07
224,64	32,26
224,86	74,24
225,07	39,94
225,29	6,14
225,50	38,91
225,72	35,33
225,93	47,10
226,15	40,45
226,37	27,65
226,58	54,27
226,80	110,59
227,01	52,22
227,23	117,25
227,44	57,86
227,66	57,86
227,87	59,39
228,09	74,75
228,30	40,45
228,52	53,25
228,74	64,51
228,95	115,71
229,17	-2,56
229,38	33,79
229,60	38,40
229,81	65,54
230,03	89,09
230,24	53,25
230,46	12,80
230,67	61,95
230,89	-6,66
231,10	45,57
231,32	27,65
231,53	23,55
231,75	31,23
231,97	19,46
232,18	13,82
232,40	12,29
232,61	22,02
232,83	37,38
233,04	78,85
233,26	19,46
233,47	44,54
233,69	58,37
233,90	45,57
234,12	25,09
234,33	43,01
234,55	37,38
234,76	52,22
234,98	59,90
235,19	27,65
235,41	47,62
235,62	30,72
235,84	86,01
236,05	76,80
236,27	22,53
236,48	32,26
236,70	79,36
236,91	46,59
237,13	49,66
237,34	98,81
237,56	28,16
237,77	40,45
237,99	17,41
238,20	15,36
238,42	17,92
238,63	68,09
238,85	50,18
239,06	27,65
239,28	28,67
239,49	21,50
239,71	25,60
239,92	27,14
240,14	46,59
240,35	53,76
240,57	30,72
240,78	25,60
241,00	60,93
241,21	74,24
241,43	69,63
241,64	16,90
241,86	62,46
242,07	29,70
242,29	47,62
242,50	39,94
242,72	20,99
242,93	62,98
243,15	61,44
243,36	58,88
243,58	76,29
243,79	28,16
244,01	10,75
244,22	31,74
244,44	48,64
244,65	25,09
244,87	66,56
245,08	58,37
245,29	30,72
245,51	15,87
245,72	-13,31
245,94	66,05
246,15	26,62
246,37	53,76
246,58	32,77
246,80	37,89
247,01	26,62
247,23	66,05
247,44	35,84
247,66	64,51
247,87	37,38
248,09	53,76
248,30	75,26
248,51	40,96
248,73	57,86
248,94	15,87
249,16	89,09
249,37	46,59
249,59	35,33
249,80	72,70
250,02	72,19
250,23	26,11
250,45	103,42
250,66	75,77
250,87	54,78
251,09	65,02
251,30	64,51
251,52	34,30
251,73	50,18
251,95	9,73
252,16	46,08
252,38	69,12
252,59	55,30
252,80	67,07
253,02	38,91
253,23	70,65
253,45	3,58
253,66	67,58
253,88	62,46
254,09	-9,22
254,30	108,54
254,52	58,37
254,73	82,43
254,95	69,63
255,16	54,78
255,38	58,88
255,59	43,52
255,80	36,35
256,02	43,01
256,23	61,44
256,45	64,51
256,66	37,89
256,88	104,45
257,09	76,29
257,30	107,52
257,52	41,47
257,73	15,87
257,95	35,33
258,16	56,83
258,38	90,11
258,59	62,98
258,80	57,34
259,02	68,09
259,23	-2,05
259,45	19,46
259,66	73,73
259,87	54,27
260,09	35,84
260,30	53,76
260,52	81,41
260,73	41,98
260,94	10,75
261,16	53,25
261,37	80,38
261,59	23,04
261,80	40,96
262,01	15,87
262,23	56,32
262,44	46,08
262,66	8,19
262,87	50,18
263,08	34,30
263,30	88,57
263,51	46,08
263,73	28,16
263,94	51,71
264,15	40,96
264,37	44,03
264,58	87,04
264,80	38,91
265,01	65,02
265,22	28,16
265,44	25,60
265,65	20,99
265,86	71,17
266,08	99,33
266,29	56,32
266,51	44,54
266,72	56,83
266,93	65,02
267,15	37,89
267,36	16,90
267,58	36,86
267,79	66,05
268,00	51,71
268,22	110,59
268,43	71,17
268,64	82,94
268,86	41,47
269,07	101,37
269,28	71,17
269,50	62,98
269,71	69,63
269,93	33,79
270,14	97,28
270,35	84,48
270,57	39,42
270,78	95,74
270,99	60,42
271,21	64,51
271,42	101,89
271,63	50,18
271,85	75,77
272,06	46,08
272,28	66,56
272,49	95,74
272,70	103,93
272,92	66,56
273,13	67,07
273,34	35,84
273,56	88,06
273,77	53,76
273,98	81,41
274,20	82,43
274,41	32,26
274,62	77,31
274,84	84,48
275,05	18,43
275,26	61,44
275,48	89,09
275,69	104,96
275,90	71,68
276,12	51,20
276,33	71,17
276,54	85,50
276,76	86,01
276,97	26,11
277,18	91,65
277,40	72,70
277,61	59,90
277,82	72,70
278,04	50,69
278,25	32,26
278,46	39,94
278,68	52,22
278,89	102,91
279,10	124,41
279,32	75,26
279,53	70,14
279,74	87,04
279,96	81,41
280,17	87,04
280,38	132,09
280,60	82,94
280,81	35,84
281,02	130,05
281,24	45,57
281,45	52,74
281,66	11,78
281,88	18,94
282,09	40,45
282,30	61,44
282,52	80,38
282,73	57,86
282,94	54,78
283,15	94,72
283,37	77,31
283,58	65,02
283,79	95,23
284,01	50,18
284,22	103,93
284,43	50,18
284,65	68,09
284,86	27,14
285,07	80,89
285,28	90,11
285,50	86,53
285,71	57,86
285,92	99,84
286,14	92,16
286,35	96,25
286,56	96,25
286,77	86,01
286,99	115,20
287,20	83,97
287,41	90,11
287,63	69,63
287,84	73,21
288,05	84,48
288,27	95,74
288,48	92,67
288,69	90,62
288,90	71,17
289,12	17,92
289,33	117,76
289,54	80,89
289,75	83,97
289,97	66,05
290,18	77,31
290,39	89,60
290,61	97,79
290,82	87,55
291,03	72,19
291,24	84,48
291,46	151,04
291,67	57,34
291,88	105,98
292,09	102,91
292,31	56,32
292,52	73,73
292,73	102,91
292,95	136,19
293,16	73,73
293,37	55,81
293,58	129,53
293,80	82,43
294,01	66,05
294,22	112,64
294,43	43,01
294,65	71,17
294,86	63,49
295,07	87,55
295,28	113,15
295,50	81,92
295,71	108,54
295,92	77,82
296,13	73,21
296,35	155,65
296,56	90,11
296,77	60,93
296,98	86,53
297,20	174,59
297,41	129,02
297,62	115,71
297,83	131,58
298,05	129,53
298,26	126,46
298,47	108,03
298,68	120,32
298,89	177,15
299,11	177,66
299,32	136,19
299,53	169,47
299,74	140,80
299,96	115,71
300,17	79,36
300,38	157,69
300,59	188,41
300,81	120,32
301,02	138,24
301,23	164,35
301,44	135,68
301,65	124,41
301,87	143,87
302,08	163,84
302,29	132,09
302,50	147,45
302,72	133,12
302,93	188,93
303,14	194,56
303,35	129,53
303,56	167,42
303,78	180,22
303,99	125,44
304,20	228,86
304,41	268,28
304,62	195,07
304,84	219,64
305,05	190,97
305,26	252,41
305,47	306,68
305,68	202,75
305,90	314,36
306,11	261,12
306,32	285,18
306,53	264,70
306,74	276,48
306,96	330,75
307,17	348,67
307,38	338,94
307,59	384,51
307,80	414,71
308,02	420,35
308,23	469,50
308,44	475,64
308,65	511,48
308,86	573,43
309,08	543,22
309,29	568,82
309,50	644,09
309,71	717,81
309,92	721,40
310,13	780,79
310,35	795,64
310,56	863,73
310,77	822,77
310,98	887,28
311,19	910,32
311,41	1030,64
311,62	1052,14
311,83	1052,14
312,04	1106,42
312,25	1210,35
312,46	1221,10
312,68	1226,73
312,89	1347,56
313,10	1366,00
313,31	1372,65
313,52	1346,03
313,73	1378,79
313,95	1464,30
314,16	1629,16
314,37	1623,53
314,58	1765,35
314,79	1938,40
315,00	1899,49
315,22	2005,99
315,43	2057,18
315,64	2084,32
315,85	2072,03
316,06	2140,64
316,27	2173,41
316,48	2374,11
316,70	2368,48
316,91	2520,03
317,12	2465,24
317,33	2575,83
317,54	2578,90
317,75	2624,47
317,97	2804,18
318,18	2990,55
318,39	2997,20
318,60	3162,06
318,81	3243,98
319,02	3335,12
319,23	3382,22
319,45	3349,96
319,66	3349,96
319,87	3315,15
320,08	3353,04
320,29	3358,16
320,50	3298,77
320,71	3479,50
320,92	3453,90
321,14	3695,56
321,35	3936,20
321,56	4143,55
321,77	4356,54
321,98	4517,82
322,19	4549,05
322,40	4730,81
322,61	4683,70
322,83	4905,40
323,04	4940,72
323,25	5290,93
323,46	5531,05
323,67	5869,99
323,88	6055,84
324,09	6367,65
324,30	6407,07
324,52	6603,16
324,73	6652,31
324,94	6588,83
325,15	6553,50
325,36	6448,54
325,57	6258,59
325,78	6240,16
325,99	6250,40
326,20	6296,99
326,41	6670,75
326,63	6975,89
326,84	7127,96
327,05	7565,71
327,26	7828,36
327,47	8224,64
327,68	7972,23
327,89	8030,60
328,10	7711,11
328,31	7721,87
328,52	7451,02
328,74	7274,38
328,95	7225,75
329,16	7561,10
329,37	7478,67
329,58	7610,25
329,79	7788,94
330,00	7873,42
330,21	7798,66
330,42	7870,34
330,63	7881,61
330,84	7747,98
331,06	7720,33
331,27	7853,96
331,48	7493,01
331,69	7713,67
331,90	7830,92
332,11	7854,47
332,32	8193,41
332,53	8240,00
332,74	8164,74
332,95	8534,40
333,16	8330,11
333,37	8313,73
333,58	8030,09
333,79	7880,58
334,01	7601,04
334,22	7704,46
334,43	7344,53
334,64	7484,30
334,85	7467,41
335,06	7502,22
335,27	7463,82
335,48	7846,79
335,69	7883,66
335,90	8165,25
336,11	8286,08
336,32	8582,01
336,53	8577,41
336,74	8891,26
336,95	8734,59
337,16	8994,17
337,37	9086,33
337,59	9434,48
337,80	9303,41
338,01	9383,79
338,22	9549,17
338,43	9475,95
338,64	9174,39
338,85	9105,27
339,06	9191,80
339,27	9228,66
339,48	9294,71
339,69	9431,92
339,90	9481,58
340,11	9753,45
340,32	9788,78
340,53	9860,46
340,74	9729,39
340,95	9759,08
341,16	9567,60
341,37	9313,14
341,58	8860,54
341,79	8787,32
342,00	8189,32
342,21	8212,87
342,42	8441,73
342,63	8716,67
342,84	9142,64
343,05	9070,45
343,26	9399,15
343,48	9609,58
343,69	9468,27
343,90	9635,18
344,11	9342,83
344,32	9520,49
344,53	9827,69
344,74	9743,21
344,95	9437,55
345,16	9454,45
345,37	9479,54
345,58	9442,16
345,79	9425,78
346,00	9571,18
346,21	9462,13
346,42	9360,24
346,63	9494,90
346,84	9460,08
347,05	9565,04
347,26	9873,77
347,47	9907,05
347,68	10133,86
347,89	10481,50
348,10	10794,33
348,31	11108,69
348,52	11053,40
348,73	10758,49
348,94	10910,04
349,15	10353,51
349,36	10682,21
349,57	10496,86
349,78	10386,27
349,99	10367,84
350,20	10299,23
350,41	10122,60
350,62	10356,07
350,83	10554,21
351,04	10818,91
351,25	11451,73
351,45	11587,41
351,66	11709,26
351,87	11865,42
352,08	12072,26
352,29	12256,07
352,50	12091,21
352,71	12028,23
352,92	12083,02
353,13	11919,69
353,34	11659,60
353,55	11622,73
353,76	11276,63
353,97	11010,39
354,18	10598,75
354,39	10354,53
354,60	10014,06
354,81	9706,86
355,02	9779,05
355,23	9491,82
355,44	9205,11
355,65	9052,02
355,86	9024,89
356,07	8897,40
356,28	8808,31
356,49	9191,28
356,70	9472,37
356,91	10169,70
357,12	10912,60
357,32	11234,13
357,53	11365,20
357,74	11776,33
357,95	11583,82
358,16	11447,12
358,37	10858,33
358,58	10813,79
358,79	10651,49
359,00	10662,75
359,21	10719,58
359,42	10536,80
359,63	10732,38
359,84	10997,08
360,05	11111,77
360,26	11691,85
360,47	11834,19
360,68	11777,36
360,88	11653,45
361,09	12000,58
361,30	11697,49
361,51	12095,30
361,72	11992,39
361,93	12286,28
362,14	12045,64
362,35	12236,10
362,56	12301,12
362,77	12570,94
362,98	12929,85
363,19	13369,14
363,40	13657,39
363,60	13977,39
363,81	14413,60
364,02	14394,15
364,23	14398,24
364,44	14343,46
364,65	14155,05
364,86	14225,19
365,07	14145,32
365,28	13975,85
365,49	13732,14
365,70	13646,13
365,91	13321,01
366,11	13436,21
366,32	13702,45
366,53	13520,18
366,74	13700,40
366,95	14004,52
367,16	14131,50
367,37	14359,33
367,58	14443,81
367,79	14463,27
368,00	14199,08
368,20	13950,76
368,41	13529,39
368,62	13662,51
368,83	13680,43
369,04	13691,70
369,25	13878,06
369,46	13703,47
369,67	13202,23
369,88	13049,14
370,08	12514,63
370,29	12321,09
370,50	12382,02
370,71	12140,36
370,92	11519,82
371,13	11296,60
371,34	11041,62
371,55	10899,80
371,75	10763,10
371,96	10962,78
372,17	10867,55
372,38	10990,94
372,59	10913,11
372,80	11396,43
373,01	11444,05
373,22	11882,83
373,42	12488,51
373,63	12575,04
373,84	12332,36
374,05	12463,43
374,26	12429,63
374,47	12840,25
374,68	13157,69
374,88	13517,11
375,09	13957,42
375,30	14392,10
375,51	14671,14
375,72	14980,89
375,93	14619,94
376,14	14754,08
376,34	14364,96
376,55	14177,06
376,76	13275,45
376,97	13147,96
377,18	12482,88
377,39	12545,34
377,59	12353,86
377,80	12855,10
378,01	12712,77
378,22	13318,96
378,43	13294,39
378,64	13432,12
378,85	12942,14
379,05	12540,74
379,26	12058,95
379,47	11450,71
379,68	10753,37
379,89	10447,20
380,10	9852,27
380,30	9505,65
380,51	9246,58
380,72	8924,02
380,93	8644,99
381,14	8522,62
381,34	8707,45
381,55	9089,40
381,76	9535,34
381,97	9958,25
382,18	10575,71
382,39	11160,41
382,59	11372,88
382,80	11519,31
383,01	11638,09
383,22	11597,65
383,43	11401,04
383,63	11479,89
383,84	11345,23
384,05	11419,99
384,26	11610,96
384,47	11663,18
384,68	11637,07
384,88	11802,96
385,09	11663,69
385,30	11691,85
385,51	11687,76
385,72	11798,86
385,92	11526,48
386,13	11544,91
386,34	11673,42
386,55	12173,64
386,76	12423,49
386,96	12747,58
387,17	13327,67
387,38	13871,40
387,59	14118,70
387,79	14417,19
388,00	14220,07
388,21	14534,95
388,42	14911,77
388,63	15014,68
388,83	15069,47
389,04	15481,62
389,25	15091,99
389,46	15089,95
389,67	14473,00
389,87	13756,21
390,08	12880,70
390,29	11852,11
390,50	10825,56
390,70	9954,15
390,91	9106,29
391,12	8646,52
391,33	8641,40
391,53	9220,98
391,74	9788,78
391,95	11073,88
392,16	11918,67
392,37	12849,47
392,57	13509,43
392,78	14332,20
392,99	14475,04
393,20	14796,06
393,40	14429,99
393,61	13918,51
393,82	13061,94
394,03	11955,02
394,23	11050,84
394,44	10457,95
394,65	10187,62
394,86	10432,86
395,06	11196,25
395,27	12659,52
395,48	13639,47
395,69	15258,39
395,89	16200,97
396,10	16967,42
396,31	17736,43
396,52	18420,45
396,72	18881,76
396,93	19292,89
397,14	19095,77
397,35	20003,53
397,55	20042,96
397,76	19947,22
397,97	20128,97
398,18	20606,15
398,38	20395,72
398,59	20739,78
398,80	20754,12
399,00	21195,45
399,21	21539,51
399,42	21827,25
399,63	21234,36
399,83	21437,62
400,04	21767,86
400,25	22071,98
400,46	21615,80
400,66	21153,98
400,87	21297,34
401,08	21390,01
401,28	21084,35
401,49	21245,12
401,70	21135,55
401,91	21096,13
402,11	21288,64
402,32	20971,20
402,53	20879,04
402,73	20801,22
402,94	20857,03
403,15	21241,02
403,35	20783,30
403,56	20925,63
403,77	20293,83
403,98	20719,30
404,18	20320,97
404,39	20746,44
404,60	20489,93
404,80	20653,76
405,01	20771,52
405,22	21150,40
405,42	20757,70
405,63	21462,20
405,84	21446,84
406,05	22122,67
406,25	22141,61
406,46	22489,77
406,67	22174,89
406,87	22732,45
407,08	22037,17
407,29	21950,13
407,49	20921,02
407,70	20908,74
407,91	20551,37
408,11	20577,48
408,32	20660,42
408,53	21698,74
408,73	21733,04
408,94	22585,00
409,15	22981,79
409,35	23285,92
409,56	23141,02
409,77	23551,64
409,97	23119,52
410,18	23394,46
410,39	22919,33
410,59	22923,43
410,80	22457,00
411,01	23184,54
411,21	22718,12
411,42	22936,23
411,63	22958,24
411,83	23252,64
412,04	22975,14
412,25	23339,16
412,45	22647,46
412,66	22854,82
412,87	22929,06
413,07	23065,25
413,28	22807,72
413,49	23115,94
413,69	23070,88
413,90	23488,67
414,11	23195,29
414,31	23487,13
414,52	23014,56
414,72	22722,21
414,93	22828,71
415,14	22292,65
415,34	22151,34
415,55	22147,25
415,76	22259,88
415,96	22349,48
416,17	22117,04
416,38	22037,17
416,58	22214,32
416,79	22215,34
416,99	21876,40
417,20	22105,26
417,41	22194,35
417,61	21950,64
417,82	21711,03
418,03	22253,23
418,23	22251,69
418,44	22559,91
418,64	22741,16
418,85	22952,61
419,06	22968,99
419,26	22970,02
419,47	22819,49
419,67	22578,86
419,88	21993,14
420,09	22201,52
420,29	21477,05
420,50	21786,29
420,71	21493,43
420,91	21442,23
421,12	21526,20
421,32	21738,68
421,53	21774,00
421,74	21926,58
421,94	21996,21
422,15	22277,29
422,35	22286,51
422,56	22471,34
422,77	21846,19
422,97	21751,48
423,18	21479,61
423,38	22066,86
423,59	21728,44
423,80	21965,49
424,00	21571,25
424,21	21968,05
424,41	20988,10
424,62	21664,95
424,82	20818,63
425,03	21190,33
425,24	21283,00
425,44	21253,82
425,65	21054,65
425,85	21944,50
426,06	21206,72
426,26	21454,01
426,47	20738,76
426,68	20946,62
426,88	20034,77
427,09	20284,62
427,29	19416,28
427,50	18901,73
427,70	18058,99
427,91	17218,30
428,12	17196,28
428,32	17020,67
428,53	17106,68
428,73	17733,87
428,94	18771,17
429,14	19685,59
429,35	20769,99
429,56	21888,69
429,76	22224,04
429,97	22278,32
430,17	22342,83
430,38	22687,40
430,58	22709,93
430,79	23008,42
430,99	22852,26
431,20	23030,94
431,40	22406,31
431,61	22315,18
431,82	22282,92
432,02	21831,86
432,23	22553,77
432,43	23258,78
432,64	22577,32
432,84	23688,85
433,05	23965,33
433,25	24005,27
433,46	24707,72
433,66	24931,46
433,87	25025,67
434,07	25367,16
434,28	25555,58
434,49	25538,68
434,69	24926,34
434,90	24981,12
435,10	24694,41
435,31	24928,90
435,51	23630,49
435,72	23799,96
435,92	22806,69
436,13	23295,64
436,33	22971,55
436,54	23194,27
436,74	23547,03
436,95	24082,58
437,15	23935,12
437,36	24669,83
437,56	24246,41
437,77	24099,47
437,97	24319,12
438,18	24860,29
438,38	24832,65
438,59	25449,08
438,79	25062,02
439,00	25876,09
439,20	25783,93
439,41	26260,59
439,61	26469,48
439,82	26882,66
440,02	26374,25
440,23	26483,31
440,43	26882,15
440,64	26746,98
440,84	26828,39
441,05	26977,38
441,25	26736,23
441,46	26880,10
441,66	26692,20
441,87	27128,42
442,07	26795,11
442,28	27001,96
442,48	26233,46
442,69	26673,77
442,89	26741,86
443,10	26044,02
443,30	25437,82
443,51	25934,96
443,71	25724,54
443,92	25495,67
444,12	26093,17
444,32	26547,31
444,53	26477,68
444,73	26977,38
444,94	26603,11
445,14	27413,60
445,35	27314,78
445,55	27095,14
445,76	27172,96
445,96	27474,01
446,17	27314,78
446,37	27769,94
446,58	27529,82
446,78	27736,15
446,98	26950,24
447,19	27574,36
447,39	27858,01
447,60	28498,51
447,80	28297,30
448,01	28393,55
448,21	28936,26
448,42	28920,39
448,62	29172,29
448,82	28766,28
449,03	28667,98
449,23	28155,99
449,44	28491,34
449,64	28580,94
449,85	27755,61
450,05	27386,46
450,26	27224,67
450,46	26494,57
450,66	26707,05
450,87	26795,62
451,07	26557,55
451,28	26902,12
451,48	26617,96
451,69	27393,63
451,89	27130,47
452,09	27334,75
452,30	27353,18
452,50	27232,35
452,71	27406,94
452,91	27720,28
453,12	28240,47
453,32	28056,66
453,52	28378,19
453,73	28571,21
453,93	28807,24
454,14	28179,54
454,34	28649,03
454,54	28650,06
454,75	28621,90
454,95	28673,10
455,16	28613,20
455,36	28675,66
455,56	27815,00
455,77	29157,96
455,97	28291,15
456,18	27855,45
456,38	28334,67
456,58	28037,72
456,79	28325,97
456,99	28438,61
457,20	28573,26
457,40	28412,49
457,60	28587,60
457,81	29311,04
458,01	28763,21
458,22	28857,93
458,42	29575,74
458,62	29585,47
458,83	29493,82
459,03	30114,87
459,23	29928,50
459,44	30186,04
459,64	29823,03
459,85	30249,52
460,05	30155,83
460,25	29758,01
460,46	29750,84
460,66	30042,68
460,86	30159,41
461,07	30507,57
461,27	30387,25
461,48	29769,27
461,68	30017,59
461,88	29822,52
462,09	30135,86
462,29	30019,64
462,49	30411,82
462,70	30195,76
462,90	30939,18
463,10	30605,36
463,31	30663,21
463,51	30952,49
463,72	31636,00
463,92	30758,95
464,12	30521,90
464,33	30671,40
464,53	30810,67
464,73	30827,05
464,94	31268,90
465,14	31164,96
465,34	31119,91
465,55	31898,14
465,75	31863,83
465,95	31207,46
466,16	32220,69
466,36	32621,07
466,56	31872,54
466,77	32663,05
466,97	33597,44
467,17	33448,96
467,38	32974,86
467,58	32885,77
467,78	32704,01
467,99	33045,51
468,19	33257,48
468,39	34434,03
468,60	33478,66
468,80	34342,90
469,00	34524,15
469,21	35290,60
469,41	35813,34
469,61	36401,62
469,82	36760,53
470,02	37007,82
470,22	36807,12
470,42	37281,74
470,63	37459,91
470,83	37903,29
471,03	38149,56
471,24	38389,69
471,44	38320,06
471,64	38934,96
471,85	38778,80
472,05	40441,75
472,25	40726,42
472,46	40000,41
472,66	41042,32
472,86	40998,29
473,06	41351,56
473,27	41800,58
473,47	41772,93
473,67	42032,51
473,88	41807,75
474,08	42176,38
474,28	42178,94
474,48	42984,82
474,69	43235,69
474,89	43859,81
475,09	44516,70
475,30	44834,13
475,50	45461,83
475,70	45884,23
475,90	46625,59
476,11	45824,84
476,31	45955,39
476,51	47051,06
476,72	47756,58
476,92	47442,22
477,12	47634,73
477,32	48788,76
477,53	48505,12
477,73	49356,56
477,93	49465,61
478,13	49712,91
478,34	49156,88
478,54	51011,83
478,74	50747,64
478,94	50862,84
479,15	50935,54
479,35	51229,43
479,55	51580,14
479,75	52503,26
479,96	52536,54
480,16	51987,17
480,36	52294,88
480,57	52799,71
480,77	52739,29
480,97	52534,49
481,17	52372,70
481,37	52931,80
481,58	52733,66
481,78	52325,60
481,98	52979,93
482,18	52776,15
482,39	52642,01
482,59	52433,12
482,79	51629,80
482,99	50989,30
483,20	49861,90
483,40	49067,28
483,60	47889,70
483,80	47600,43
484,01	47043,89
484,21	47337,77
484,41	47458,09
484,61	48098,08
484,81	49428,24
485,02	50402,56
485,22	50760,95
485,42	51413,74
485,62	52067,05
485,83	52474,59
486,03	52963,54
486,23	53202,13
486,43	53359,83
486,63	53536,98
486,84	53627,60
487,04	54005,45
487,24	54997,18
487,44	55216,82
487,64	55543,47
487,85	56080,55
488,05	56399,01
488,25	56883,36
488,45	55942,83
488,65	56364,71
488,86	55453,87
489,06	55650,48
489,26	54864,57
489,46	54866,62
489,66	54605,50
489,87	54786,24
490,07	54390,47
490,27	54425,28
490,47	55124,66
490,67	55299,25
490,88	55870,12
491,08	55913,13
491,28	56213,67
491,48	55864,49
491,68	56133,29
491,88	56780,96
492,09	56617,63
492,29	57178,78
492,49	57203,86
492,69	57582,23
492,89	57130,65
493,09	56963,74
493,30	57285,78
493,50	56757,41
493,70	56696,99
493,90	57343,64
494,10	56858,27
494,30	57357,97
494,51	57090,71
494,71	57411,73
494,91	57061,02
495,11	56960,67
495,31	56539,30
495,51	56663,20
495,72	56053,42
495,92	55363,76
496,12	55708,85
496,32	55261,88
496,52	55446,71
496,72	55540,91
496,92	55641,77
497,13	55465,65
497,33	55910,06
497,53	55447,22
497,73	55166,13
497,93	55155,38
498,13	54482,62
498,33	54053,06
498,54	53836,49
498,74	53600,97
498,94	53606,61
499,14	52991,19
499,34	52927,70
499,54	53194,45
499,74	52980,95
499,94	53699,28
500,15	53529,30
500,35	54194,37
500,55	53895,37
500,75	54180,55
500,95	53794,00
501,15	54261,44
501,35	53746,89
501,55	53771,47
501,76	53342,42
501,96	53525,71
502,16	53509,84
502,36	53920,46
502,56	54160,07
502,76	54508,74
502,96	55473,33
503,16	55384,75
503,36	55592,11
503,57	56006,83
503,77	56434,34
503,97	56634,53
504,17	56524,45
504,37	56175,27
504,57	56202,92
504,77	55947,43
504,97	55807,15
505,17	55506,61
505,37	55384,75
505,57	55591,09
505,78	55349,94
505,98	55886,51
506,18	55639,73
506,38	56268,97
506,58	56511,65
506,78	56866,46
506,98	57255,57
507,18	57122,46
507,38	57302,68
507,58	57427,09
507,78	57421,46
507,98	57684,11
508,19	57517,20
508,39	57601,68
508,59	58447,49
508,79	58529,92
508,99	58606,72
509,19	59180,15
509,39	59113,59
509,59	59082,36
509,79	59323,51
509,99	59233,91
510,19	59331,19
510,39	58596,48
510,59	58391,17
510,79	58683,01
510,99	58584,71
511,19	58130,06
511,39	58633,35
511,60	58288,26
511,80	58206,34
512,00	58626,18
512,20	58599,55
512,40	58709,63
512,60	58932,35
512,80	58899,07
513,00	59878,51
513,20	59473,52
513,40	59408,50
513,60	59546,23
513,80	58525,83
514,00	57776,78
514,20	56550,56
514,40	56170,15
514,60	55331,00
514,80	54689,98
515,00	54469,82
515,20	54403,78
515,40	54997,18
515,60	55198,90
515,80	55141,05
516,00	55912,62
516,20	55952,04
516,40	56220,84
516,60	56642,72
516,80	56962,71
517,00	57501,33
517,20	58386,57
517,40	58634,37
517,60	59130,49
517,80	59476,08
518,00	59464,31
518,20	59947,12
518,40	60037,74
518,60	60087,92
518,80	60302,95
519,00	60385,89
519,20	60586,08
519,40	60414,57
519,60	60341,35
519,80	60239,98
520,00	60173,42
520,20	59658,35
520,40	59530,36
520,60	59098,75
520,80	59564,66
521,00	59317,37
521,20	59899,50
521,40	59747,44
521,60	60341,86
521,80	60400,74
522,00	60605,54
522,20	60695,65
522,40	60732,00
522,60	60337,77
522,80	60425,83
523,00	60131,43
523,20	59961,45
523,40	59126,39
523,60	58644,61
523,80	57956,49
524,00	57018,01
524,20	56411,30
524,40	55590,06
524,60	55087,29
524,80	55003,32
525,00	54689,98
525,20	55584,43
525,40	55550,13
525,60	56246,95
525,80	56685,22
526,00	57328,79
526,20	57699,98
526,40	57379,99
526,60	58245,77
526,79	58634,88
526,99	58320,01
527,19	58932,35
527,39	58220,68
527,59	58380,93
527,79	58124,94
527,99	58140,81
528,19	58328,71
528,39	58733,18
528,59	58315,91
528,79	58356,87
528,99	57996,43
529,19	58514,05
529,39	57500,82
529,59	57275,54
529,79	57188,50
529,98	56619,17
530,18	55858,35
530,38	55628,46
530,58	55196,34
530,78	55466,16
530,98	55273,14
531,18	55106,74
531,38	55057,59
531,58	55430,32
531,78	55006,39
531,98	55669,42
532,18	55643,31
532,37	55591,09
532,57	55886,00
532,77	56138,41
532,97	56529,57
533,17	56848,54
533,37	56387,75
533,57	56858,78
533,77	56437,41
533,97	55815,34
534,17	55935,15
534,37	55692,97
534,56	55261,88
534,76	55055,54
534,96	54630,59
535,16	54560,96
535,36	54785,72
535,56	54867,64
535,76	54857,91
535,96	55082,17
536,16	55048,38
536,35	54854,33
536,55	54522,05
536,75	54209,73
536,95	54191,30
537,15	53797,58
537,35	53283,54
537,55	53278,42
537,75	52614,88
537,94	52510,94
538,14	52352,23
538,34	52266,72
538,54	52204,77
538,74	52104,93
538,94	51995,88
539,14	52201,19
539,34	52051,69
539,53	52599,52
539,73	52222,18
539,93	52649,69
540,13	52237,03
540,33	52373,73
540,53	52510,94
540,73	52502,24
540,92	52076,77
541,12	52926,17
541,32	52335,84
541,52	52740,83
541,72	52666,59
541,92	53041,37
542,11	52778,71
542,31	52863,71
542,51	52690,14
542,71	52596,96
542,91	52591,84
543,11	52815,07
543,30	52675,29
543,50	52524,77
543,70	52757,21
543,90	52468,45
544,10	52406,50
544,30	52289,76
544,49	52526,81
544,69	52240,10
544,89	51806,95
545,09	51902,70
545,29	51630,32
545,49	51768,55
545,68	51608,81
545,88	51606,25
546,08	51529,97
546,28	51623,15
546,48	51787,50
546,67	51878,12
546,87	52034,79
547,07	51993,83
547,27	51831,53
547,47	52204,77
547,67	52094,69
547,86	51714,28
548,06	51714,28
548,26	52074,21
548,46	51319,02
548,66	51643,12
548,85	51500,27
549,05	51476,21
549,25	51476,21
549,45	51907,30
549,65	51613,93
549,84	52050,15
550,04	51160,31
550,24	51408,62
550,44	51312,37
550,63	51254,51
550,83	51135,73
551,03	51298,55
551,23	50997,49
551,43	51388,14
551,62	51501,81
551,82	51217,65
552,02	51296,50
552,22	51490,03
552,41	51437,30
552,61	51497,20
552,81	51508,97
553,01	51823,34
553,21	50988,28
553,40	50941,17
553,60	50937,59
553,80	51396,34
554,00	50469,12
554,19	50711,29
554,39	50359,04
554,59	49920,26
554,79	49894,66
554,98	49653,00
555,18	49619,72
555,38	49420,05
555,58	49425,68
555,77	49554,19
555,97	49153,30
556,17	48828,69
556,37	48316,19
556,56	48665,37
556,76	48148,77
556,96	48307,49
557,16	47492,91
557,35	48091,94
557,55	47647,53
557,75	48277,79
557,95	47892,26
558,14	48370,97
558,34	48286,50
558,54	48349,98
558,73	48539,93
558,93	48656,15
559,13	48589,08
559,33	48413,98
559,52	47972,13
559,72	47416,11
559,92	47679,78
560,12	47460,14
560,31	47954,21
560,51	47882,53
560,71	47821,61
560,90	47601,96
561,10	47998,76
561,30	47590,70
561,50	47639,85
561,69	47724,84
561,89	47477,55
562,09	47426,86
562,28	46909,75
562,48	47405,87
562,68	46914,87
562,87	46904,12
563,07	46169,41
563,27	46614,84
563,47	45532,49
563,66	45840,71
563,86	45459,79
564,06	45737,80
564,25	45443,91
564,45	45834,05
564,65	45707,59
564,84	45545,29
565,04	45862,72
565,24	45879,62
565,43	45587,27
565,63	45452,11
565,83	45165,39
566,02	44735,83
566,22	44811,60
566,42	44403,55
566,61	44079,46
566,81	43936,61
567,01	44026,72
567,20	43970,91
567,40	43625,32
567,60	43397,99
567,79	43352,43
567,99	43153,26
568,19	42984,30
568,38	42775,41
568,58	42417,02
568,78	42392,95
568,97	42300,79
569,17	42298,75
569,37	42295,67
569,56	42470,78
569,76	43082,61
569,96	42670,45
570,15	42798,45
570,35	42908,02
570,55	42957,17
570,74	42695,54
570,94	42918,77
571,13	42935,66
571,33	42535,29
571,53	42584,95
571,72	42467,70
571,92	42012,03
572,12	42371,96
572,31	42161,53
572,51	41873,79
572,71	41688,96
572,90	41541,51
573,10	41430,41
573,29	41262,99
573,49	41251,72
573,69	41018,77
573,88	40864,14
574,08	40870,80
574,28	40976,78
574,47	40873,87
574,67	41038,22
574,86	41041,29
575,06	41194,38
575,26	40565,65
575,45	40514,97
575,65	40239,51
575,84	40229,79
576,04	40131,48
576,24	40366,49
576,43	39967,65
576,63	40057,76
576,82	39731,62
577,02	40180,63
577,22	40248,73
577,41	40220,06
577,61	40615,83
577,80	40418,71
578,00	40462,23
578,20	40618,39
578,39	40807,31
578,59	40972,69
578,78	40960,91
578,98	41007,50
579,17	40860,05
579,37	41435,53
579,57	41432,97
579,76	41888,13
579,96	41485,70
580,15	41603,97
580,35	41568,65
580,55	41561,48
580,74	41504,65
580,94	41655,68
581,13	41547,14
581,33	41387,91
581,52	41441,16
581,72	41451,40
581,91	41473,42
582,11	41723,27
582,31	41059,73
582,50	41508,23
582,70	41234,31
582,89	40979,34
583,09	40828,30
583,28	40582,04
583,48	40170,91
583,67	40474,52
583,87	40139,68
584,07	40183,19
584,26	40151,45
584,46	40275,35
584,65	40274,33
584,85	40167,84
585,04	40108,96
585,24	40047,00
585,43	39755,68
585,63	39274,92
585,82	38953,90
586,02	38393,78
586,21	37818,81
586,41	36953,55
586,61	36516,82
586,80	36173,78
587,00	35537,89
587,19	35626,46
587,39	35050,99
587,58	35479,52
587,78	35433,96
587,97	35875,29
588,17	36372,44
588,36	36720,08
588,56	36431,32
588,75	36905,93
588,95	36884,43
589,14	36931,53
589,34	36911,05
589,53	37069,26
589,73	37024,20
589,92	37309,38
590,12	37234,12
590,31	37125,07
590,51	37602,75
590,70	37310,41
590,90	37431,75
591,09	37597,63
591,29	37148,62
591,48	37205,96
591,68	37285,83
591,87	37074,38
592,07	36845,52
592,26	36939,72
592,46	36827,09
592,65	36730,83
592,85	36653,52
593,04	36666,83
593,24	36692,43
593,43	36986,32
593,63	36904,91
593,82	36840,40
594,01	37105,10
594,21	37294,02
594,40	37051,85
594,60	37121,48
594,79	37181,38
594,99	37210,57
595,18	37086,15
595,38	37014,99
595,57	37201,35
595,77	36957,13
595,96	36883,92
596,16	36951,50
596,35	36794,32
596,54	37121,48
596,74	36521,43
596,93	36877,26
597,13	36847,05
597,32	36760,53
597,52	36592,08
597,71	36877,26
597,91	36598,74
598,10	36582,35
598,29	36741,07
598,49	36607,95
598,68	36500,44
598,88	36796,37
599,07	36238,30
599,27	36356,05
599,46	36442,07
599,65	36157,40
599,85	36075,99
600,04	36171,22
600,24	36009,95
600,43	36196,82
600,63	36449,24
600,82	36596,18
601,01	36370,90
601,21	36974,54
601,40	36691,92
601,60	36808,65
601,79	36932,56
601,99	36870,61
602,18	36795,85
602,37	36838,35
602,57	36687,31
602,76	36990,92
602,96	36614,61
603,15	36948,94
603,34	36530,64
603,54	36758,99
603,73	36690,90
603,93	36868,56
604,12	36719,57
604,31	36893,13
604,51	36587,99
604,70	36729,30
604,90	36528,08
605,09	36834,25
605,28	36491,73
605,48	36310,49
605,67	36309,97
605,86	36390,87
606,06	36158,42
606,25	36080,60
606,45	36086,23
606,64	36074,46
606,83	35496,93
607,03	35909,08
607,22	35887,07
607,41	35843,04
607,61	35511,78
607,80	35786,72
608,00	35493,86
608,19	35450,34
608,38	35421,16
608,58	35685,34
608,77	35332,58
608,96	35336,16
609,16	35276,26
609,35	35235,30
609,54	35060,71
609,74	35080,68
609,93	34944,49
610,12	34622,96
610,32	35039,72
610,51	34844,65
610,71	34521,59
610,90	34688,49
611,09	34350,58
611,29	34295,80
611,48	34519,54
611,67	34100,22
611,87	34587,63
612,06	34333,17
612,25	34237,43
612,45	34242,04
612,64	34137,08
612,83	34363,38
613,03	34249,72
613,22	34152,95
613,41	33909,24
613,61	33742,33
613,80	33831,93
613,99	33467,39
614,18	33510,91
614,38	33506,82
614,57	33521,66
614,76	33557,50
614,96	33637,37
615,15	33760,76
615,34	33909,75
615,54	34130,94
615,73	34128,38
615,92	34414,07
616,12	34101,24
616,31	34788,85
616,50	34341,36
616,69	34597,87
616,89	34683,89
617,08	34583,02
617,27	34648,05
617,47	34839,53
617,66	34892,27
617,85	35129,32
618,05	35314,66
618,24	35162,09
618,43	35336,16
618,62	35425,76
618,82	35138,54
619,01	35569,63
619,20	35539,94
619,40	35372,00
619,59	35639,78
619,78	35462,63
619,97	35367,40
620,17	35394,53
620,36	35394,53
620,55	35524,07
620,74	35249,13
620,94	35373,03
621,13	35324,39
621,32	35394,02
621,51	35207,14
621,71	35566,56
621,90	35267,05
622,09	35281,89
622,29	35113,96
622,48	35048,94
622,67	35263,97
622,86	35088,87
623,06	35096,04
623,25	35011,05
623,44	34877,93
623,63	34998,25
623,83	35332,58
624,02	35274,21
624,21	34970,09
624,40	35161,58
624,59	35053,55
624,79	34957,29
624,98	34483,19
625,17	34496,50
625,36	33970,17
625,56	33688,06
625,75	33559,55
625,94	33400,83
626,13	33474,56
626,33	33281,03
626,52	33284,61
626,71	33364,48
626,90	33240,58
627,09	33279,49
627,29	32962,06
627,48	33190,41
627,67	33230,34
627,86	33006,60
628,05	33137,67
628,25	33195,53
628,44	33169,41
628,63	33233,41
628,82	32926,22
629,02	33160,20
629,21	33100,29
629,40	32999,43
629,59	33270,79
629,78	33257,48
629,98	33150,98
630,17	33120,77
630,36	33148,42
630,55	33058,82
630,74	33007,62
630,93	33254,92
631,13	33038,34
631,32	33025,54
631,51	33428,48
631,70	33191,43
631,89	33078,28
632,09	32742,92
632,28	33026,57
632,47	33174,53
632,66	32778,25
632,85	33142,28
633,04	32789,00
633,24	32721,93
633,43	32893,96
633,62	32755,21
633,81	32618,51
634,00	32645,65
634,19	32710,67
634,39	32364,56
634,58	32580,11
634,77	32615,44
634,96	32440,85
635,15	32520,21
635,34	32691,21
635,54	32947,72
635,73	32568,34
635,92	32984,07
636,11	32922,12
636,30	32675,85
636,49	32571,92
636,68	32413,20
636,88	32409,62
637,07	32122,90
637,26	32032,28
637,45	31650,85
637,64	32068,12
637,83	31820,31
638,02	31685,66
638,21	31649,82
638,41	31692,32
638,60	31356,96
638,79	31195,17
638,98	31536,16
639,17	31450,66
639,36	31361,57
639,55	31209,51
639,74	31286,82
639,94	31182,88
640,13	31316,51
640,32	31153,19
640,51	31189,54
640,70	31211,56
640,89	31183,91
641,08	30776,87
641,27	30896,68
641,46	30806,57
641,66	31066,15
641,85	31028,26
642,04	30775,34
642,23	30784,04
642,42	30954,02
642,61	30842,41
642,80	30485,04
642,99	30383,15
643,18	30329,39
643,37	30337,07
643,56	29946,94
643,76	29844,02
643,95	29849,66
644,14	29535,81
644,33	29495,36
644,52	29460,54
644,71	29129,80
644,90	29066,82
645,09	29022,79
645,28	28611,15
645,47	28686,92
645,66	28539,98
645,85	28682,83
646,04	28435,02
646,24	28414,54
646,43	27934,81
646,62	28188,24
646,81	28053,59
647,00	28098,13
647,19	27975,25
647,38	27817,05
647,57	28002,39
647,76	28013,65
647,95	28312,14
648,14	28403,79
648,33	28346,45
648,52	28262,48
648,71	28336,21
648,90	28232,79
649,09	28173,91
649,28	28279,38
649,47	28134,99
649,66	28189,78
649,85	28017,24
650,05	28192,85
650,24	27974,74
650,43	28273,23
650,62	28389,97
650,81	28475,98
651,00	28486,22
651,19	28183,12
651,38	28226,64
651,57	28236,37
651,76	28161,62
651,95	28114,00
652,14	27809,37
652,33	27622,49
652,52	27559,52
652,71	27328,61
652,90	26835,05
653,09	26595,95
653,28	26046,58
653,47	25538,68
653,66	25108,10
653,85	24672,90
654,04	24346,76
654,23	24507,02
654,42	24436,88
654,61	24486,54
654,80	24689,80
654,99	24854,66
655,18	25180,29
655,37	25577,08
655,56	25973,36
655,75	26173,55
655,94	26244,21
656,13	26607,72
656,32	26838,63
656,51	26761,83
656,70	27040,87
656,89	27049,57
657,08	27192,93
657,27	27088,99
657,46	27055,72
657,65	27454,56
657,84	27522,65
658,03	27720,28
658,22	27443,81
658,40	27385,44
658,59	27433,05
658,78	27442,27
658,97	27452,51
659,16	27677,27
659,35	27642,46
659,54	27662,94
659,73	27440,73
659,92	27673,69
660,11	27752,54
660,30	27659,87
660,49	27592,79
660,68	27516,00
660,87	27389,02
661,06	27394,65
661,25	27223,14
661,44	27183,20
661,63	27047,52
661,82	27218,53
662,01	27000,93
662,19	27261,02
662,38	27117,67
662,57	27250,27
662,76	27035,24
662,95	27180,64
663,14	27049,06
663,33	27086,95
663,52	26826,34
663,71	27266,14
663,90	26772,07
664,09	27147,36
664,28	26755,69
664,47	26891,37
664,65	26912,36
664,84	26951,78
665,03	26725,48
665,22	26956,39
665,41	26781,80
665,60	26730,60
665,79	26860,65
665,98	26856,04
666,17	26732,14
666,36	26600,55
666,55	26763,88
666,73	26640,49
666,92	26773,61
667,11	26707,56
667,30	26659,95
667,49	26593,39
667,68	26497,64
667,87	26708,07
668,06	26483,31
668,25	26553,45
668,43	26412,65
668,62	26301,04
668,81	26310,25
669,00	26237,04
669,19	25982,58
669,38	26385,01
669,57	25920,63
669,76	26036,34
669,94	25970,29
670,13	26026,10
670,32	25790,07
670,51	26133,11
670,70	25989,75
670,89	26062,45
671,08	26125,94
671,26	25820,28
671,45	26143,86
671,64	25820,79
671,83	25879,67
672,02	25900,66
672,21	25968,76
672,40	25723,00
672,58	25677,43
672,77	25635,96
672,96	25504,38
673,15	25856,63
673,34	25527,42
673,53	25600,12
673,71	25606,27
673,90	25620,60
674,09	25623,16
674,28	25546,87
674,47	25467,52
674,66	25446,52
674,84	25397,88
675,03	25513,08
675,22	25316,99
675,41	25321,60
675,60	25352,83
675,79	25224,32
675,97	25215,10
676,16	25158,27
676,35	25249,41
676,54	25094,27
676,73	25023,11
676,91	25007,23
677,10	24979,07
677,29	25074,31
677,48	24864,39
677,67	24939,14
677,86	24870,53
678,04	24878,72
678,23	24734,34
678,42	24581,26
678,61	24735,88
678,80	24717,45
678,98	24830,60
679,17	24815,24
679,36	24498,83
679,55	24304,78
679,73	24518,79
679,92	24708,74
680,11	24460,43
680,30	24430,22
680,49	24195,21
680,67	24375,44
680,86	24371,34
681,05	24155,28
681,24	24322,19
681,42	23990,42
681,61	23918,74
681,80	23665,81
681,99	24029,84
682,18	23684,25
682,36	23828,12
682,55	23652,50
682,74	23577,75
682,93	23621,27
683,11	23717,53
683,30	23282,84
683,49	23228,57
683,68	22770,34
683,86	22142,13
684,05	21673,65
684,24	20589,77
684,43	19567,32
684,61	18557,16
684,80	17835,76
684,99	17294,07
685,18	17068,80
685,36	16792,32
685,55	16755,46
685,74	16812,29
685,93	16734,98
686,11	16829,18
686,30	16812,29
686,49	16910,59
686,67	16957,18
686,86	17024,25
687,05	17180,92
687,24	17251,06
687,42	17385,21
687,61	17501,94
687,80	17747,19
687,99	17832,69
688,17	18156,78
688,36	18448,61
688,55	18440,93
688,73	18601,70
688,92	18898,66
689,11	18943,71
689,29	19194,59
689,48	19444,95
689,67	19486,93
689,86	19693,27
690,04	19651,28
690,23	19657,43
690,42	19942,61
690,60	19661,52
690,79	19803,35
690,98	19794,64
691,16	19697,88
691,35	19661,01
691,54	19534,55
691,72	19431,64
691,91	19377,88
692,10	19363,54
692,29	19471,57
692,47	19523,80
692,66	19527,38
692,85	19473,62
693,03	19454,17
693,22	19535,57
693,41	19650,26
693,59	19692,76
693,78	19912,91
693,97	19921,10
694,15	20126,92
694,34	20224,72
694,53	20473,03
694,71	20256,97
694,90	20440,26
695,09	20443,34
695,27	20275,40
695,46	20409,03
695,64	20260,04
695,83	20145,36
696,02	20073,68
696,20	20002,00
696,39	19955,41
696,58	19838,16
696,76	19682,52
696,95	19685,59
697,14	19545,81
697,32	19550,93
697,51	19283,16
697,70	19496,66
697,88	19098,33
698,07	18861,28
698,25	19076,32
698,44	19046,62
698,63	19010,27
698,81	18808,54
699,00	18853,60
699,19	18830,56
699,37	18823,39
699,56	18625,76
699,74	18542,82
699,93	18647,27
700,12	18489,06
700,30	18578,66
700,49	18503,91
700,67	18688,23
700,86	18734,82
701,05	18714,34
701,23	18808,55
701,42	18765,54
701,60	18867,42
701,79	18843,87
701,98	18891,49
702,16	18994,91
702,35	18817,25
702,53	18814,69
702,72	19041,50
702,91	18881,76
703,09	18689,25
703,28	18989,79
703,46	18917,09
703,65	18992,86
703,83	18571,49
704,02	18788,58
704,21	18607,84
704,39	18813,15
704,58	18710,75
704,76	18748,13
704,95	18565,35
705,13	18679,52
705,32	18702,56
705,51	18681,57
705,69	18756,83
705,88	18615,01
706,06	18667,75
706,25	18518,76
706,43	18652,90
706,62	18489,06
706,80	18375,40
706,99	18565,35
707,18	18479,33
707,36	18448,61
707,55	18324,71
707,73	18288,87
707,92	18230,51
708,10	18317,54
708,29	18289,90
708,47	18449,64
708,66	18325,74
708,84	18210,03
709,03	18158,83
709,21	18154,73
709,40	18279,15
709,59	18084,59
709,77	17918,70
709,96	17949,42
710,14	17878,26
710,33	17846,00
710,51	17877,74
710,70	17782,51
710,88	17694,45
711,07	17530,61
711,25	17600,76
711,44	17682,67
711,62	17549,04
711,81	17489,65
711,99	17487,09
712,18	17338,10
712,36	17171,71
712,55	17140,47
712,73	17143,03
712,92	17111,29
713,10	16845,05
713,29	16755,46
713,47	16730,88
713,66	16447,24
713,84	16263,43
714,03	16048,91
714,21	15887,12
714,40	15376,66
714,58	14807,33
714,77	14637,34
714,95	14189,86
715,14	13946,67
715,32	13520,69
715,51	13323,57
715,69	13061,43
715,87	12737,85
716,06	12408,13
716,24	12380,48
716,43	12165,45
716,61	11986,76
716,80	11749,71
716,98	11679,57
717,17	11570,51
717,35	11491,66
717,54	11441,49
717,72	11393,36
717,91	11465,04
718,09	11626,32
718,27	11791,69
718,46	12034,38
718,64	12157,25
718,83	12576,06
719,01	12730,69
719,20	13128,50
719,38	13187,89
719,57	13506,35
719,75	13666,10
719,93	13692,21
720,12	13724,97
720,30	13695,79
720,49	13566,77
720,67	13302,07
720,86	13109,56
721,04	13084,47
721,22	12802,36
721,41	12652,86
721,59	12470,08
721,78	12388,16
721,96	12171,08
722,14	12270,92
722,33	12001,61
722,51	11982,67
722,70	11806,03
722,88	11996,49
723,06	11802,44
723,25	11856,72
723,43	11827,02
723,62	11927,88
723,80	12021,06
723,98	12003,66
724,17	11940,68
724,35	11981,13
724,54	11688,78
724,72	12010,82
724,90	11708,75
725,09	11929,42
725,27	11714,38
725,46	11842,38
725,64	11635,53
725,82	11872,59
726,01	11851,60
726,19	11807,05
726,38	11753,80
726,56	11820,36
726,74	11741,00
726,93	11735,88
727,11	11866,44
727,29	11766,09
727,48	11792,72
727,66	11801,93
727,84	11904,84
728,03	11875,66
728,21	11798,86
728,40	11796,30
728,58	11891,02
728,76	11920,20
728,95	12038,98
729,13	11928,39
729,31	12067,14
729,50	12184,90
729,68	12364,61
729,86	12473,15
730,05	12586,82
730,23	12603,20
730,41	12562,75
730,60	12887,87
730,78	12924,73
730,96	13092,15
731,15	13203,25
731,33	13250,36
731,51	13379,38
731,70	13432,12
731,88	13482,80
732,06	13578,03
732,25	13512,50
732,43	13507,89
732,61	13493,55
732,80	13450,03
732,98	13484,85
733,16	13501,23
733,34	13292,85
733,53	13305,14
733,71	13187,38
733,89	13240,12
734,08	13267,25
734,26	13182,77
734,44	13175,61
734,63	13207,35
734,81	13136,18
734,99	13247,80
735,18	13233,97
735,36	13129,53
735,54	13267,77
735,72	13122,36
735,91	13241,65
736,09	13101,37
736,27	13135,67
736,46	13157,69
736,64	13025,59
736,82	13067,58
737,00	12978,49
737,19	13113,14
737,37	12970,30
737,55	13135,16
737,73	13029,18
737,92	13139,77
738,10	13090,10
738,28	13199,67
738,47	13080,89
738,65	13112,63
738,83	13072,18
739,01	12927,29
739,20	13041,98
739,38	13019,45
739,56	12967,74
739,74	13169,46
739,93	13026,11
740,11	12996,41
740,29	13055,80
740,47	12994,36
740,66	13057,34
740,84	12916,03
741,02	13194,55
741,20	12995,39
741,38	13003,07
741,57	12886,33
741,75	13049,66
741,93	13017,91
742,11	12950,84
742,30	12965,18
742,48	13002,55
742,66	12949,82
742,84	12895,04
743,03	12896,06
743,21	12870,46
743,39	12981,56
743,57	12880,70
743,75	12890,43
743,94	12829,50
744,12	12753,73
744,30	12748,09
744,48	12811,07
744,66	12723,52
744,85	12641,09
745,03	12747,07
745,21	12777,28
745,39	12781,37
745,57	12887,87
745,76	12888,89
745,94	12885,31
746,12	12842,30
746,30	12813,12
746,48	12804,92
746,67	12818,24
746,85	12930,87
747,03	12777,79
747,21	12763,97
747,39	12883,26
747,57	12878,14
747,76	12934,97
747,94	12751,17
748,12	12874,04
748,30	12787,00
748,48	12964,67
748,67	12907,32
748,85	13109,05
749,03	13016,89
749,21	13094,71
749,39	13077,82
749,57	13140,79
749,75	13151,54
749,94	13264,18
750,12	13255,48
750,30	13324,08
750,48	13354,80
750,66	13280,05
750,84	13374,26
751,03	13433,65
751,21	13475,63
751,39	13629,74
751,57	13686,58
751,75	13743,41
751,93	13765,42
752,11	13740,33
752,29	13721,90
752,48	13826,86
752,66	13862,19
752,84	14034,22
753,02	13856,04
753,20	14020,39
753,38	14029,10
753,56	14034,73
753,74	13920,04
753,93	14171,43
754,11	14007,08
754,29	14223,65
754,47	13959,98
754,65	14105,38
754,83	14177,58
755,01	14096,17
755,19	14178,60
755,37	14145,83
755,56	14137,13
755,74	13972,27
755,92	13971,24
756,10	13786,93
756,28	13622,58
756,46	13217,08
756,64	12504,90
756,82	11667,79
757,00	10594,65
757,18	9603,44
757,36	8539,01
757,55	7344,02
757,73	6300,58
757,91	5557,16
758,09	4750,26
758,27	4140,48
758,45	3723,72
758,63	3470,80
758,81	3423,69
758,99	3490,25
759,17	3643,85
759,35	3819,97
759,53	3942,34
759,71	3928,52
759,89	3921,86
760,08	3789,25
760,26	3648,46
760,44	3597,26
760,62	3563,47
760,80	3479,50
760,98	3449,80
761,16	3444,68
761,34	3480,01
761,52	3663,82
761,70	3798,47
761,88	4011,97
762,06	4126,15
762,24	4438,97
762,42	4733,37
762,60	5032,37
762,78	5257,14
762,96	5612,97
763,14	5889,96
763,32	6232,99
763,50	6500,25
763,68	6858,14
763,86	7063,96
764,04	7531,41
764,22	7804,81
764,40	8194,43
764,58	8425,34
764,76	8761,21
764,94	8971,13
765,12	9212,79
765,30	9415,54
765,48	9717,10
765,66	9757,04
765,84	10079,59
766,02	10079,08
766,20	10284,39
766,38	10384,74
766,56	10370,40
766,74	10459,49
766,92	10529,12
767,10	10658,65
767,28	10552,16
767,46	10540,90
767,64	10537,82
767,82	10468,19
768,00	10619,74
768,18	10610,53
768,36	10628,45
768,54	10632,54
768,72	10445,15
768,90	10510,69
769,08	10553,69
769,26	10276,20
769,44	10510,69
769,62	10263,91
769,80	10355,55
769,98	10336,61
770,16	10258,28
770,34	10199,91
770,52	10162,53
770,70	10199,91
770,88	10233,19
771,06	10064,74
771,24	10062,18
771,42	9964,39
771,60	9947,50
771,78	9878,89
771,96	9853,80
772,13	9638,76
772,31	9697,64
772,49	9607,53
772,67	9565,55
772,85	9553,77
773,03	9554,29
773,21	9450,86
773,39	9521,01
773,57	9341,30
773,75	9440,11
773,93	9423,73
774,11	9370,48
774,29	9291,63
774,47	9149,81
774,64	9167,22
774,82	9230,20
775,00	9140,08
775,18	9031,54
775,36	8983,93
775,54	8910,71
775,72	8927,61
775,90	8864,63
776,08	8808,83
776,26	8796,54
776,43	8711,55
776,61	8620,92
776,79	8658,30
776,97	8656,25
777,15	8573,31
777,33	8517,50
777,51	8358,78
777,69	8496,00
777,87	8413,57
778,04	8411,01
778,22	8345,47
778,40	8399,74
778,58	8254,85
778,76	8233,86
778,94	8242,05
779,12	8182,15
779,30	8157,06
779,47	8037,25
779,65	8149,38
779,83	8055,69
780,01	8099,72
780,19	7942,02
780,37	7905,67
780,55	7880,58
780,73	7751,56
780,90	7782,28
781,08	7727,50
781,26	7687,56
781,44	7655,82
781,62	7594,38
781,80	7576,97
781,97	7676,81
782,15	7603,60
782,33	7449,49
782,51	7521,68
782,69	7487,89
782,87	7323,02
783,04	7326,61
783,22	7248,27
783,40	7278,48
783,58	7126,93
783,76	7234,96
783,94	7270,80
784,11	7082,90
784,29	7080,85
784,47	7043,48
784,65	6996,37
784,83	6925,72
785,01	6838,17
785,18	6851,48
785,36	6752,66
785,54	6845,85
785,72	6763,42
785,90	6732,70
786,07	6661,53
786,25	6661,02
786,43	6588,83
786,61	6415,77
786,79	6415,26
786,96	6393,25
787,14	6333,34
787,32	6347,17
787,50	6206,88
787,67	6281,63
787,85	6269,34
788,03	6272,42
788,21	6042,53
788,39	6147,49
788,56	6117,79
788,74	6145,95
788,92	6029,22
789,10	6065,57
789,27	5975,97
789,45	5908,39
789,63	5929,38
789,81	5915,05
789,99	5925,29
790,16	5911,97
790,34	5761,96
790,52	5833,13
790,70	5788,58
790,87	5654,95
791,05	5708,71
791,23	5672,87
791,41	5689,77
791,58	5756,84
791,76	5588,91
791,94	5596,59
792,12	5590,95
792,29	5628,33
792,47	5605,80
792,65	5625,26
792,82	5499,82
793,00	5543,85
793,18	5540,27
793,36	5490,60
793,53	5403,05
793,71	5394,35
793,89	5363,12
794,07	5352,88
794,24	5232,05
794,42	5303,73
794,60	5312,43
794,77	5268,91
794,95	5264,30
795,13	5268,91
795,31	5236,14
795,48	5255,09
795,66	5163,95
795,84	5186,99
796,01	5262,26
796,19	5283,25
796,37	5217,20
796,54	5083,57
796,72	5135,79
796,90	5034,42
797,08	4968,37
797,25	4990,39
797,43	4969,91
797,61	4901,30
797,78	4886,45
797,96	4848,57
798,14	4801,46
798,31	4782,01
798,49	4765,62
798,67	4728,76
798,84	4773,82
799,02	4822,45
799,20	4714,42
799,37	4687,29
799,55	4662,20
799,73	4689,34
799,90	4602,81
800,08	4617,15
800,26	4545,47
800,43	4567,48
800,61	4581,31
800,79	4594,62
800,96	4519,36
801,14	4516,80
801,32	4446,65
801,49	4479,42
801,67	4316,09
801,84	4422,59
802,02	4388,29
802,20	4432,83
802,37	4313,53
802,55	4348,35
802,73	4346,81
802,90	4330,43
803,08	4315,07
803,26	4354,49
803,43	4390,33
803,61	4422,59
803,78	4380,61
803,96	4306,88
804,14	4295,61
804,31	4252,61
804,49	4245,44
804,67	4241,34
804,84	4213,70
805,02	4294,59
805,19	4208,06
805,37	4261,82
805,55	4089,79
805,72	4183,49
805,90	4027,33
806,07	4203,46
806,25	4063,17
806,43	4123,07
806,60	4050,88
806,78	4087,23
806,95	3961,28
807,13	4023,23
807,30	3989,44
807,48	3831,75
807,66	3811,27
807,83	3891,14
808,01	3909,06
808,18	3839,94
808,36	3753,93
808,54	3839,43
808,71	3738,57
808,89	3678,15
809,06	3754,95
809,24	3559,88
809,41	3610,57
809,59	3616,71
809,76	3538,38
809,94	3567,56
810,12	3494,86
810,29	3452,36
810,47	3357,13
810,64	3316,17
810,82	3250,64
810,99	3301,33
811,17	3135,44
811,34	3155,92
811,52	3097,04
811,69	3100,62
811,87	3030,99
812,05	2954,19
812,22	2961,87
812,40	2897,36
812,57	2836,44
812,75	2872,28
812,92	2747,86
813,10	2751,96
813,27	2731,99
813,45	2675,67
813,62	2555,35
813,80	2595,29
813,97	2521,56
814,15	2485,21
814,32	2524,12
814,50	2507,23
814,67	2479,58
814,85	2526,68
815,02	2431,45
815,20	2479,07
815,37	2467,80
815,55	2427,35
815,72	2399,71
815,90	2500,57
816,07	2423,77
816,25	2426,33
816,42	2439,64
816,60	2442,71
816,77	2427,87
816,95	2415,07
817,12	2389,98
817,30	2420,19
817,47	2418,14
817,65	2419,68
817,82	2475,99
818,00	2469,85
818,17	2600,41
818,35	2589,66
818,52	2603,99
818,70	2603,99
818,87	2574,81
819,04	2616,79
819,22	2551,77
819,39	2558,94
819,57	2489,82
819,74	2485,72
819,92	2422,24
820,09	2342,36
820,27	2235,87
820,44	2267,61
820,62	2150,37
820,79	2195,93
820,96	2170,33
821,14	2170,33
821,31	2234,85
821,49	2288,61
821,66	2193,89
821,84	2285,02
822,01	2353,12
822,18	2332,12
822,36	2329,56
822,53	2362,33
822,71	2348,00
822,88	2357,72
823,06	2347,48
823,23	2373,60
823,40	2343,90
823,58	2330,08
823,75	2298,84
823,93	2311,64
824,10	2360,80
824,27	2374,62
824,45	2355,68
824,62	2336,22
824,80	2397,15
824,97	2338,78
825,14	2321,37
825,32	2290,65
825,49	2240,99
825,67	2295,26
825,84	2209,76
826,01	2293,73
826,19	2202,08
826,36	2206,69
826,54	2164,19
826,71	2254,30
826,88	2184,67
827,06	2209,25
827,23	2115,04
827,40	2188,25
827,58	2191,33
827,75	2152,93
827,93	2184,16
828,10	2223,07
828,27	2107,36
828,45	2126,30
828,62	2137,57
828,79	2185,18
828,97	2093,54
829,14	2187,23
829,31	2148,83
829,49	2089,44
829,66	2150,88
829,83	2100,19
830,01	2033,63
830,18	2114,53
830,35	2039,26
830,53	2106,85
830,70	2107,36
830,87	2053,60
831,05	2005,47
831,22	2057,18
831,39	1974,75
831,57	2088,93
831,74	2068,45
831,91	2077,15
832,09	2116,58
832,26	2088,93
832,43	2022,37
832,61	2129,89
832,78	2074,08
832,95	2100,70
833,13	2026,47
833,30	2036,19
833,47	2164,19
833,65	2095,07
833,82	2086,88
833,99	2111,46
834,16	2117,09
834,34	2075,10
834,51	2080,74
834,68	2071,52
834,86	2040,80
835,03	2034,14
835,20	2100,70
835,38	2084,32
835,55	2077,15
835,72	2101,73
835,89	2012,13
836,07	2092,51
836,24	2055,14
836,41	2109,92
836,58	2084,32
836,76	2056,16
836,93	2022,88
837,10	2056,16
837,28	2036,70
837,45	2005,99
837,62	2052,06
837,79	2016,23
837,97	2021,86
838,14	1981,41
838,31	1993,70
838,48	2012,13
838,66	2021,86
838,83	1992,67
839,00	1941,47
839,17	2043,87
839,35	1969,12
839,52	1984,99
839,69	1953,25
839,86	1994,21
840,04	1977,31
840,21	1962,47
840,38	1959,39
840,55	1913,83
840,72	1907,17
840,90	1879,01
841,07	1834,98
841,24	1855,97
841,41	1867,24
841,59	1883,11
841,76	1823,20
841,93	1926,11
842,10	1884,13
842,27	1871,84
842,45	1850,34
842,62	1853,41
842,79	1866,21
842,96	1860,58
843,13	1785,83
843,31	1811,94
843,48	1727,46
843,65	1851,36
843,82	1863,14
843,99	1824,23
844,17	1757,16
844,34	1812,45
844,51	1773,03
844,68	1779,17
844,85	1734,12
845,02	1799,65
845,20	1860,58
845,37	1729,51
845,54	1744,87
845,71	1802,72
845,88	1737,19
846,06	1764,33
846,23	1758,18
846,40	1704,42
846,57	1709,03
846,74	1688,55
846,91	1668,07
847,09	1681,89
847,26	1566,70
847,43	1652,71
847,60	1630,70
847,77	1578,47
847,94	1576,42
848,11	1594,86
848,29	1529,83
848,46	1501,16
848,63	1535,46
848,80	1583,08
848,97	1556,97
849,14	1535,98
849,31	1489,90
849,49	1569,26
849,66	1525,22
849,83	1486,31
850,00	1509,35
850,17	1532,90
850,34	1491,95
850,51	1492,46
850,68	1493,99
850,85	1539,56
851,03	1555,43
851,20	1521,13
851,37	1423,85
851,54	1442,28
851,71	1415,15
851,88	1351,15
852,05	1352,68
852,22	1411,05
852,39	1318,89
852,57	1341,42
852,74	1259,50
852,91	1359,34
853,08	1285,61
853,25	1302,00
853,42	1345,00
853,59	1303,02
853,76	1326,06
853,93	1360,36
854,10	1320,43
854,27	1315,31
854,44	1327,08
854,62	1372,65
854,79	1243,12
854,96	1378,28
855,13	1327,08
855,30	1304,56
855,47	1364,46
855,64	1377,77
855,81	1228,78
855,98	1326,57
856,15	1327,08
856,32	1297,39
856,49	1331,69
856,66	1289,20
856,83	1269,74
857,00	1366,51
857,17	1276,40
857,34	1297,39
857,51	1308,65
857,69	1279,98
857,86	1275,37
858,03	1307,12
858,20	1325,55
858,37	1240,05
858,54	1223,15
858,71	1289,71
858,88	1267,18
859,05	1297,39
859,22	1264,11
859,39	1229,29
859,56	1245,68
859,73	1198,06
859,90	1188,33
860,07	1251,31
860,24	1236,46
860,41	1234,93
860,58	1167,85
860,75	1193,97
860,92	1257,45
861,09	1224,69
861,26	1176,56
861,43	1137,13
861,60	1138,16
861,77	1175,02
861,94	1171,44
862,11	1133,55
862,28	1151,47
862,45	1150,96
862,62	1122,80
862,79	1142,25
862,96	1132,01
863,13	1183,73
863,30	1108,46
863,47	1128,94
863,64	1037,81
863,81	1030,64
863,98	1055,73
864,15	1035,76
864,32	1025,52
864,48	1012,21
864,65	971,25
864,82	931,31
864,99	994,80
865,16	888,31
865,33	968,18
865,50	886,77
865,67	982,00
865,84	958,96
866,01	976,88
866,18	934,39
866,35	963,06
866,52	997,36
866,69	996,34
866,86	970,74
867,03	944,11
867,20	935,41
867,37	959,99
867,53	975,35
867,70	981,49
867,87	947,19
868,04	938,48
868,21	944,11
868,38	954,35
868,55	937,46
868,72	936,95
868,89	878,58
869,06	942,58
869,23	935,92
869,40	907,25
869,56	969,71
869,73	879,09
869,90	954,35
870,07	874,99
870,24	895,99
870,41	920,05
870,58	830,45
870,75	868,85
870,92	816,63
871,08	834,55
871,25	873,46
871,42	892,91
871,59	829,94
871,76	893,43
871,93	868,34
872,10	886,77
872,27	852,98
872,43	787,96
872,60	859,12
872,77	814,07
872,94	803,83
873,11	774,13
873,28	796,15
873,45	832,50
873,62	802,29
873,78	751,09
873,95	800,24
874,12	727,03
874,29	735,73
874,46	788,98
874,63	757,75
874,79	803,83
874,96	745,97
875,13	739,32
875,30	753,14
875,47	722,93
875,64	721,91
875,80	750,07
875,97	764,92
876,14	740,34
876,31	740,34
876,48	713,72
876,65	773,62
876,81	674,81
876,98	732,66
877,15	733,17
877,32	703,48
877,49	674,81
877,65	711,67
877,82	674,29
877,99	711,16
878,16	649,21
878,33	699,89
878,49	627,70
878,66	620,53
878,83	667,64
879,00	635,89
879,17	654,33
879,33	629,24
879,50	653,81
879,67	637,43
879,84	653,81
880,01	677,37
880,17	627,70
880,34	655,86
880,51	652,79
880,68	679,93
880,84	627,70
881,01	648,18
881,18	619,51
881,35	653,81
881,52	588,28
881,68	611,83
881,85	572,41
882,02	625,14
882,19	619,51
882,35	636,92
882,52	599,54
882,69	610,29
882,86	611,83
883,02	567,80
883,19	571,38
883,36	584,70
883,53	572,92
883,69	602,61
883,86	582,14
884,03	588,28
884,19	585,21
884,36	545,27
884,53	510,46
884,70	545,78
884,86	531,45
885,03	492,54
885,20	483,32
885,37	544,76
885,53	495,10
885,70	510,97
885,87	537,59
886,03	526,33
886,20	500,22
886,37	503,29
886,54	507,90
886,70	480,76
886,87	481,78
887,04	499,70
887,20	466,94
887,37	513,53
887,54	485,88
887,70	458,75
887,87	501,75
888,04	512,50
888,20	530,42
888,37	495,10
888,54	518,14
888,71	487,93
888,87	458,74
889,04	455,16
889,21	476,66
889,37	429,05
889,54	450,04
889,71	485,37
889,87	431,10
890,04	436,22
890,21	436,22
890,37	436,22
890,54	436,22
890,71	436,22
890,87	436,22
>>>>>End Processed Spectral Data<<<<<
