SpectraSuite Datei
++++++++++++++++++++++++++++++++++++
Datum: Mon Nov 11 15:05:23 CET 2019
Benutzer: user
Dark-Spektrum vorhanden: Ja
Referenz-Spektrum vorhanden: Nein
Zahl der probierten Teilspektren: 1
Spektrometer: USB4F04607
Integrationszeit (usec): 120000 (USB4F04607)
Spektren Durchschnitt berechnet: 4 (USB4F04607)
Boxcar Glättung: 0 (USB4F04607)
Dunkelstromkorrektur: Nein (USB4F04607)
Puls/Lampe aktiviert: Nein (USB4F04607)
Correct for Detector Non-linearity: Nein (USB4F04607)
Streulichtkorrektur: Nein (USB4F04607)
Anzahl Pixel in verarbeitetem Spektrum: 3648
>>>>>Begin Processed Spectral Data<<<<<
177,66	-46,08
177,88	-46,08
178,10	-46,08
178,32	-2,05
178,53	-39,42
178,75	-46,59
178,97	-25,09
179,19	-42,50
179,40	-9,73
179,62	-59,90
179,84	-37,89
180,05	-66,56
180,27	10,24
180,49	-25,09
180,71	-57,86
180,92	-49,15
181,14	-45,06
181,36	3,07
181,58	-11,26
181,79	21,50
182,01	-48,13
182,23	-9,22
182,44	20,48
182,66	-23,04
182,88	22,53
183,10	-23,55
183,31	5,12
183,53	11,78
183,75	41,98
183,96	-20,99
184,18	-31,74
184,40	-69,12
184,62	-30,72
184,83	-24,06
185,05	-2,05
185,27	8,19
185,48	-19,46
185,70	-4,10
185,92	0,00
186,14	-21,50
186,35	24,06
186,57	-10,75
186,79	20,48
187,00	-24,58
187,22	-12,80
187,44	-38,40
187,66	-51,71
187,87	37,38
188,09	-32,26
188,31	-29,70
188,52	-15,87
188,74	-15,87
188,96	17,41
189,17	-19,97
189,39	17,92
189,61	-22,02
189,82	24,58
190,04	-2,05
190,26	2,05
190,48	1,54
190,69	-1,02
190,91	1,02
191,13	-1,02
191,34	3,58
191,56	-3,07
191,78	19,46
191,99	8,19
192,21	2,05
192,43	-26,11
192,64	-5,12
192,86	-10,24
193,08	-41,98
193,29	17,92
193,51	-35,33
193,73	1,54
193,94	-30,21
194,16	-6,66
194,38	-3,58
194,60	-27,65
194,81	2,56
195,03	27,65
195,25	19,97
195,46	-3,07
195,68	-26,62
195,90	-22,53
196,11	51,71
196,33	21,50
196,55	-24,58
196,76	-40,45
196,98	9,22
197,20	7,17
197,41	-36,35
197,63	16,90
197,85	1,02
198,06	-46,59
198,28	-31,23
198,50	-60,42
198,71	23,04
198,93	-10,75
199,14	-53,76
199,36	-28,16
199,58	-36,35
199,79	24,58
200,01	-29,18
200,23	23,55
200,44	52,22
200,66	10,75
200,88	-27,14
201,09	-1,02
201,31	17,92
201,53	-56,32
201,74	-10,75
201,96	-8,70
202,18	27,14
202,39	-14,85
202,61	-16,90
202,83	8,70
203,04	-38,91
203,26	32,26
203,47	-13,82
203,69	-2,05
203,91	25,60
204,12	-32,77
204,34	22,53
204,56	-8,19
204,77	3,07
204,99	17,92
205,21	36,35
205,42	2,56
205,64	-51,20
205,85	-3,07
206,07	-37,38
206,29	-22,53
206,50	15,36
206,72	20,48
206,94	-6,66
207,15	7,17
207,37	-30,21
207,58	11,78
207,80	-1,54
208,02	10,24
208,23	2,05
208,45	14,85
208,67	-25,60
208,88	11,78
209,10	-38,91
209,31	-22,02
209,53	1,54
209,75	21,50
209,96	12,80
210,18	-55,30
210,40	16,90
210,61	-25,60
210,83	-18,43
211,04	23,55
211,26	-45,57
211,48	17,41
211,69	-34,30
211,91	-35,84
212,12	-15,87
212,34	0,00
212,56	1,54
212,77	-22,53
212,99	-23,55
213,20	44,03
213,42	-29,70
213,64	-11,26
213,85	-7,68
214,07	16,90
214,28	-24,58
214,50	-44,03
214,72	32,77
214,93	24,06
215,15	31,23
215,36	17,92
215,58	-10,24
215,80	-8,19
216,01	12,80
216,23	-4,61
216,44	24,58
216,66	-39,42
216,88	-27,14
217,09	6,66
217,31	37,38
217,52	-65,54
217,74	17,92
217,95	-14,34
218,17	12,29
218,39	-24,58
218,60	22,53
218,82	-4,61
219,03	-3,07
219,25	-8,19
219,47	-28,16
219,68	4,10
219,90	4,10
220,11	-3,58
220,33	-36,86
220,54	-8,70
220,76	10,75
220,98	-56,83
221,19	31,74
221,41	11,78
221,62	29,18
221,84	-23,55
222,05	8,70
222,27	-13,31
222,48	-11,78
222,70	-24,06
222,92	0,00
223,13	15,36
223,35	-7,68
223,56	-48,13
223,78	1,54
223,99	-27,14
224,21	-17,41
224,43	-6,14
224,64	-6,14
224,86	4,61
225,07	19,97
225,29	-23,55
225,50	-46,08
225,72	47,62
225,93	-2,56
226,15	4,10
226,37	-5,12
226,58	19,97
226,80	55,30
227,01	0,00
227,23	57,34
227,44	30,72
227,66	15,87
227,87	36,86
228,09	34,30
228,30	39,94
228,52	25,09
228,74	42,50
228,95	76,80
229,17	-27,65
229,38	-15,36
229,60	-1,02
229,81	4,61
230,03	14,34
230,24	-1,54
230,46	-38,40
230,67	32,77
230,89	-51,71
231,10	-33,79
231,32	-3,07
231,53	-1,02
231,75	-51,71
231,97	-19,46
232,18	-38,91
232,40	-25,09
232,61	-25,60
232,83	5,12
233,04	35,84
233,26	-9,22
233,47	-15,87
233,69	25,60
233,90	15,87
234,12	-25,09
234,33	-7,17
234,55	-34,82
234,76	-25,09
234,98	52,22
235,19	-27,14
235,41	21,50
235,62	-27,14
235,84	12,29
236,05	1,54
236,27	24,06
236,48	-1,54
236,70	6,14
236,91	9,22
237,13	10,24
237,34	64,00
237,56	-10,75
237,77	16,38
237,99	-48,13
238,20	7,68
238,42	-18,43
238,63	7,68
238,85	28,16
239,06	-14,34
239,28	-22,53
239,49	-20,48
239,71	15,36
239,92	-38,40
240,14	-6,66
240,35	32,26
240,57	-31,23
240,78	40,45
241,00	-21,50
241,21	26,62
241,43	-7,68
241,64	-30,21
241,86	-20,48
242,07	1,02
242,29	-1,54
242,50	9,73
242,72	-19,46
242,93	-20,48
243,15	-29,70
243,36	25,60
243,58	1,54
243,79	24,58
244,01	5,63
244,22	-17,41
244,44	-4,61
244,65	-24,06
244,87	16,90
245,08	56,83
245,29	-7,68
245,51	-56,83
245,72	-30,72
245,94	9,22
246,15	15,36
246,37	-12,80
246,58	-23,55
246,80	12,29
247,01	-39,42
247,23	-21,50
247,44	7,17
247,66	-17,41
247,87	-23,04
248,09	18,43
248,30	11,26
248,51	-22,53
248,73	-17,41
248,94	-8,70
249,16	7,17
249,37	12,80
249,59	-28,16
249,80	13,31
250,02	48,64
250,23	-13,82
250,45	-26,62
250,66	19,97
250,87	-15,36
251,09	15,87
251,30	11,78
251,52	5,63
251,73	-11,26
251,95	-24,06
252,16	20,48
252,38	14,34
252,59	43,01
252,80	22,53
253,02	-43,01
253,23	38,91
253,45	-31,23
253,66	-10,24
253,88	29,70
254,09	-38,91
254,30	35,33
254,52	-8,70
254,73	40,96
254,95	-20,99
255,16	-55,30
255,38	39,94
255,59	43,01
255,80	12,29
256,02	8,19
256,23	-32,26
256,45	-19,97
256,66	20,48
256,88	14,85
257,09	-13,82
257,30	52,74
257,52	25,09
257,73	-49,15
257,95	0,51
258,16	9,73
258,38	19,46
258,59	-8,70
258,80	27,14
259,02	8,70
259,23	-51,71
259,45	-0,00
259,66	-8,19
259,87	-8,19
260,09	-13,82
260,30	-49,66
260,52	50,18
260,73	5,63
260,94	6,14
261,16	-8,19
261,37	-9,22
261,59	6,66
261,80	-20,48
262,01	-15,36
262,23	-7,17
262,44	-45,57
262,66	8,70
262,87	-3,58
263,08	-8,70
263,30	47,10
263,51	-32,77
263,73	-2,56
263,94	-5,63
264,15	-18,94
264,37	-35,84
264,58	-46,59
264,80	28,16
265,01	26,11
265,22	-13,31
265,44	20,48
265,65	-43,52
265,86	-31,74
266,08	67,58
266,29	-15,36
266,51	0,51
266,72	11,78
266,93	-16,38
267,15	-32,26
267,36	-9,22
267,58	-14,85
267,79	37,89
268,00	12,29
268,22	-6,14
268,43	10,24
268,64	16,38
268,86	-31,74
269,07	-1,02
269,28	-11,26
269,50	16,38
269,71	36,35
269,93	-32,77
270,14	37,89
270,35	68,09
270,57	18,94
270,78	32,77
270,99	20,99
271,21	8,70
271,42	15,87
271,63	-2,05
271,85	54,78
272,06	5,12
272,28	23,04
272,49	35,33
272,70	35,84
272,92	-11,78
273,13	48,64
273,34	17,92
273,56	40,96
273,77	33,79
273,98	0,51
274,20	4,10
274,41	-32,77
274,62	-20,99
274,84	22,02
275,05	-17,41
275,26	9,73
275,48	4,10
275,69	28,16
275,90	-3,58
276,12	-13,31
276,33	16,90
276,54	38,40
276,76	49,15
276,97	14,34
277,18	43,01
277,40	47,10
277,61	1,54
277,82	15,87
278,04	-1,54
278,25	-44,03
278,46	-22,02
278,68	7,68
278,89	69,63
279,10	25,09
279,32	-1,54
279,53	-11,26
279,74	-25,60
279,96	32,26
280,17	4,10
280,38	29,70
280,60	5,12
280,81	-31,74
281,02	38,40
281,24	44,54
281,45	3,58
281,66	-44,54
281,88	-16,90
282,09	10,75
282,30	27,65
282,52	80,38
282,73	-38,40
282,94	-6,66
283,15	38,91
283,37	19,97
283,58	-34,30
283,79	-1,02
284,01	-48,13
284,22	29,18
284,43	-7,68
284,65	2,05
284,86	-23,55
285,07	59,90
285,28	8,70
285,50	10,75
285,71	24,06
285,92	-9,22
286,14	17,92
286,35	-12,80
286,56	26,11
286,77	48,13
286,99	27,14
287,20	11,26
287,41	25,60
287,63	16,38
287,84	2,56
288,05	14,34
288,27	-32,26
288,48	6,66
288,69	-29,18
288,90	-44,54
289,12	-28,16
289,33	-20,99
289,54	9,73
289,75	-6,14
289,97	19,46
290,18	11,78
290,39	-35,84
290,61	-14,34
290,82	20,99
291,03	27,65
291,24	7,17
291,46	46,08
291,67	5,12
291,88	-14,34
292,09	32,26
292,31	-6,14
292,52	-8,19
292,73	31,74
292,95	5,63
293,16	-25,09
293,37	-24,58
293,58	12,29
293,80	-62,46
294,01	-33,28
294,22	18,43
294,43	3,58
294,65	-4,10
294,86	-38,91
295,07	6,14
295,28	15,36
295,50	1,54
295,71	22,02
295,92	1,54
296,13	32,26
296,35	47,10
296,56	59,39
296,77	-6,14
296,98	5,12
297,20	70,65
297,41	12,29
297,62	22,02
297,83	53,25
298,05	31,23
298,26	-9,73
298,47	5,63
298,68	0,00
298,89	42,50
299,11	71,17
299,32	-27,65
299,53	30,21
299,74	25,09
299,96	4,61
300,17	-6,66
300,38	62,98
300,59	65,53
300,81	-14,34
301,02	-46,59
301,23	81,41
301,44	15,36
301,65	-8,70
301,87	40,96
302,08	33,28
302,29	-5,63
302,50	-30,72
302,72	-1,02
302,93	-11,26
303,14	64,00
303,35	26,11
303,56	36,86
303,78	19,97
303,99	22,53
304,20	29,18
304,41	26,11
304,62	-15,87
304,84	-4,10
305,05	-2,05
305,26	76,29
305,47	56,32
305,68	-23,04
305,90	46,59
306,11	24,58
306,32	39,42
306,53	17,92
306,74	56,32
306,96	65,02
307,17	17,41
307,38	11,78
307,59	40,96
307,80	-3,07
308,02	14,34
308,23	77,82
308,44	31,23
308,65	17,41
308,86	31,23
309,08	-16,90
309,29	-12,80
309,50	27,14
309,71	37,89
309,92	56,83
310,13	23,55
310,35	-20,48
310,56	-16,38
310,77	13,31
310,98	-25,09
311,19	-23,55
311,41	15,36
311,62	0,00
311,83	-2,56
312,04	27,65
312,25	36,35
312,46	-28,67
312,68	5,63
312,89	-9,73
313,10	30,21
313,31	15,36
313,52	39,42
313,73	57,86
313,95	37,89
314,16	19,46
314,37	5,63
314,58	12,80
314,79	43,01
315,00	31,74
315,22	30,72
315,43	54,27
315,64	101,89
315,85	50,18
316,06	77,82
316,27	8,19
316,48	9,22
316,70	8,19
316,91	0,51
317,12	24,06
317,33	7,17
317,54	38,91
317,75	12,80
317,97	51,20
318,18	2,56
318,39	50,18
318,60	87,04
318,81	44,03
319,02	49,66
319,23	95,74
319,45	90,11
319,66	35,33
319,87	74,75
320,08	101,37
320,29	3,07
320,50	49,15
320,71	84,48
320,92	27,14
321,14	74,24
321,35	61,44
321,56	84,99
321,77	131,58
321,98	93,18
322,19	74,75
322,40	114,69
322,61	59,90
322,83	37,89
323,04	132,61
323,25	125,44
323,46	81,92
323,67	147,45
323,88	129,53
324,09	168,96
324,30	125,44
324,52	204,80
324,73	177,66
324,94	156,16
325,15	154,62
325,36	243,20
325,57	199,16
325,78	204,80
325,99	222,72
326,20	232,44
326,41	244,22
326,63	236,54
326,84	248,32
327,05	263,16
327,26	326,14
327,47	311,29
327,68	307,71
327,89	281,60
328,10	357,88
328,31	323,58
328,52	308,22
328,74	345,08
328,95	363,00
329,16	326,65
329,37	390,65
329,58	406,52
329,79	416,76
330,00	357,88
330,21	408,06
330,42	490,49
330,63	446,46
330,84	498,68
331,06	479,74
331,27	492,54
331,48	440,83
331,69	513,02
331,90	532,47
332,11	534,01
332,32	664,57
332,53	632,82
332,74	654,33
332,95	707,57
333,16	717,81
333,37	714,74
333,58	741,88
333,79	709,62
334,01	706,55
334,22	765,43
334,43	694,77
334,64	802,29
334,85	723,44
335,06	754,68
335,27	797,17
335,48	841,20
335,69	901,62
335,90	910,83
336,11	965,62
336,32	1064,94
336,53	1057,26
336,74	1081,33
336,95	1140,21
337,16	1123,82
337,37	1161,20
337,59	1224,17
337,80	1302,00
338,01	1276,91
338,22	1383,91
338,43	1374,70
338,64	1282,54
338,85	1304,56
339,06	1368,56
339,27	1430,51
339,48	1436,14
339,69	1441,26
339,90	1510,89
340,11	1604,58
340,32	1606,63
340,53	1706,47
340,74	1677,80
340,95	1730,02
341,16	1723,37
341,37	1685,99
341,58	1631,72
341,79	1609,19
342,00	1505,77
342,21	1529,83
342,42	1606,12
342,63	1673,19
342,84	1876,45
343,05	1839,59
343,26	1865,19
343,48	1961,44
343,69	1994,72
343,90	1982,95
344,11	2011,62
344,32	2079,71
344,53	2170,33
344,74	2167,26
344,95	2148,83
345,16	2129,89
345,37	2174,43
345,58	2227,68
345,79	2251,23
346,00	2292,70
346,21	2242,53
346,42	2405,34
346,63	2356,19
346,84	2398,68
347,05	2431,45
347,26	2520,54
347,47	2562,52
347,68	2693,59
347,89	2729,43
348,10	2846,16
348,31	2960,85
348,52	3010,51
348,73	3026,90
348,94	2987,47
349,15	2904,02
349,36	3015,63
349,57	2940,37
349,78	3072,98
349,99	2990,03
350,20	3023,31
350,41	2900,95
350,62	3032,02
350,83	3168,21
351,04	3317,71
351,25	3488,71
351,45	3494,35
351,66	3697,10
351,87	3697,61
352,08	3838,41
352,29	3907,01
352,50	3880,90
352,71	3889,60
352,92	3892,68
353,13	3947,46
353,34	3902,92
353,55	3832,77
353,76	3841,48
353,97	3671,50
354,18	3560,91
354,39	3565,00
354,60	3399,12
354,81	3363,28
355,02	3435,98
355,23	3359,69
355,44	3309,52
355,65	3249,10
355,86	3242,96
356,07	3217,87
356,28	3240,40
356,49	3348,94
356,70	3504,07
356,91	3825,61
357,12	4044,74
357,32	4263,87
357,53	4264,89
357,74	4446,14
357,95	4432,83
358,16	4295,61
358,37	4233,66
358,58	4214,21
358,79	4137,41
359,00	4205,50
359,21	4244,42
359,42	4211,65
359,63	4192,19
359,84	4395,45
360,05	4456,38
360,26	4687,29
360,47	4845,49
360,68	4862,90
360,88	4727,74
361,09	4937,65
361,30	4837,81
361,51	4983,73
361,72	5022,13
361,93	5117,36
362,14	5067,19
362,35	5191,09
362,56	5189,04
362,77	5268,40
362,98	5519,79
363,19	5674,92
363,40	5834,15
363,60	6074,79
363,81	6199,71
364,02	6300,06
364,23	6281,63
364,44	6289,82
364,65	6240,67
364,86	6298,02
365,07	6180,26
365,28	6125,47
365,49	6103,97
365,70	6173,60
365,91	5973,41
366,11	6031,27
366,32	6126,50
366,53	6161,31
366,74	6172,07
366,95	6411,17
367,16	6511,00
367,37	6507,93
367,58	6594,97
367,79	6747,03
368,00	6542,75
368,20	6441,37
368,41	6330,27
368,62	6334,88
368,83	6328,74
369,04	6358,94
369,25	6510,49
369,46	6413,21
369,67	6128,55
369,88	6039,97
370,08	5859,24
370,29	5871,53
370,50	5868,97
370,71	5832,62
370,92	5434,80
371,13	5306,29
371,34	5318,06
371,55	5197,23
371,75	5213,10
371,96	5281,71
372,17	5269,42
372,38	5212,08
372,59	5207,98
372,80	5417,39
373,01	5552,04
373,22	5752,23
373,42	6057,38
373,63	6059,94
373,84	5935,53
374,05	6094,76
374,26	6001,57
374,47	6282,66
374,68	6404,51
374,88	6443,93
375,09	6758,81
375,30	7040,40
375,51	7100,31
375,72	7335,31
375,93	7189,39
376,14	7218,58
376,34	7024,02
376,55	6945,17
376,76	6492,06
376,97	6386,59
377,18	6134,69
377,39	6236,58
377,59	6080,42
377,80	6289,82
378,01	6308,77
378,22	6577,05
378,43	6615,96
378,64	6648,22
378,85	6431,13
379,05	6299,04
379,26	6007,20
379,47	5667,24
379,68	5356,97
379,89	5236,66
380,10	4928,95
380,30	4823,48
380,51	4601,79
380,72	4437,95
380,93	4276,16
381,14	4349,37
381,34	4370,37
381,55	4562,87
381,76	4954,04
381,97	5112,75
382,18	5431,21
382,39	5779,37
382,59	5868,97
382,80	5950,89
383,01	5992,87
383,22	5914,53
383,43	5974,44
383,63	5973,92
383,84	5905,83
384,05	5901,73
384,26	5971,36
384,47	6064,55
384,68	6108,58
384,88	6180,77
385,09	6092,20
385,30	6069,67
385,51	6132,64
385,72	6183,33
385,92	6126,50
386,13	6120,87
386,34	6110,63
386,55	6486,94
386,76	6615,45
386,96	6817,18
387,17	7053,20
387,38	7289,74
387,59	7606,16
387,79	7681,42
388,00	7601,04
388,21	7749,00
388,42	7951,75
388,63	8144,26
388,83	8112,00
389,04	8301,95
389,25	8170,88
389,46	7996,29
389,67	7859,59
389,87	7406,48
390,08	6961,56
390,29	6361,50
390,50	5851,05
390,70	5354,41
390,91	4842,42
391,12	4670,90
391,33	4641,72
391,53	5030,84
391,74	5370,80
391,95	6001,57
392,16	6486,43
392,37	7094,16
392,57	7552,40
392,78	7849,86
392,99	8032,65
393,20	8253,83
393,40	7888,78
393,61	7671,69
393,82	7077,27
394,03	6662,04
394,23	5993,38
394,44	5701,54
394,65	5561,77
394,86	5764,01
395,06	6221,22
395,27	6983,57
395,48	7555,47
395,69	8520,06
395,89	8981,37
396,10	9523,05
396,31	9917,29
396,52	10311,01
396,72	10544,48
396,93	10799,45
397,14	10654,56
397,35	11183,96
397,55	11161,94
397,76	11201,37
397,97	11243,35
398,18	11517,26
398,38	11458,39
398,59	11578,19
398,80	11559,25
399,00	11985,74
399,21	12042,06
399,42	12187,97
399,63	12075,85
399,83	12042,57
400,04	12259,65
400,25	12464,45
400,46	12257,09
400,66	12079,94
400,87	11922,25
401,08	12053,32
401,28	11866,44
401,49	11981,13
401,70	11798,35
401,91	11842,89
402,11	12086,60
402,32	11817,80
402,53	11827,02
402,73	11834,70
402,94	11697,49
403,15	11964,75
403,35	11665,74
403,56	11751,76
403,77	11412,82
403,98	11870,03
404,18	11450,19
404,39	11832,65
404,60	11530,58
404,80	11757,90
405,01	11751,76
405,22	11947,34
405,42	11786,06
405,63	12165,45
405,84	12123,46
406,05	12733,76
406,25	12597,57
406,46	12749,63
406,67	12561,22
406,87	12846,40
407,08	12474,18
407,29	12335,43
407,49	11877,19
407,70	11749,71
407,91	11574,10
408,11	11644,75
408,32	11660,11
408,53	12329,80
408,73	12360,52
408,94	12818,24
409,15	13188,92
409,35	13197,11
409,56	13154,62
409,77	13419,83
409,97	13262,13
410,18	13230,90
410,39	13224,76
410,59	12879,68
410,80	12841,28
411,01	13325,11
411,21	12901,69
411,42	13171,00
411,63	13049,66
411,83	13226,81
412,04	13070,14
412,25	13236,02
412,45	13005,11
412,66	13045,05
412,87	13016,89
413,07	13202,74
413,28	13059,90
413,49	13129,02
413,69	13035,83
413,90	13393,72
414,11	13131,06
414,31	13371,19
414,52	13189,43
414,72	12986,68
414,93	12967,23
415,14	12670,78
415,34	12574,53
415,55	12655,42
415,76	12716,86
415,96	12702,53
416,17	12585,28
416,38	12555,07
416,58	12691,77
416,79	12545,34
416,99	12495,17
417,20	12573,50
417,41	12622,66
417,61	12528,96
417,82	12428,10
418,03	12622,66
418,23	12590,40
418,44	12854,08
418,64	12861,24
418,85	13154,62
419,06	13097,27
419,26	13305,14
419,47	13022,52
419,67	12904,25
419,88	12650,30
420,09	12648,77
420,29	12217,67
420,50	12429,63
420,71	12361,03
420,91	12281,67
421,12	12177,22
421,32	12452,67
421,53	12349,25
421,74	12453,70
421,94	12516,67
422,15	12753,73
422,35	12799,80
422,56	12817,21
422,77	12483,39
422,97	12418,37
423,18	12315,97
423,38	12639,04
423,59	12502,34
423,80	12624,19
424,00	12410,69
424,21	12546,37
424,41	12029,77
424,62	12409,15
424,82	11851,08
425,03	12157,25
425,24	12195,65
425,44	12211,53
425,65	12172,61
425,85	12681,02
426,06	12243,27
426,26	12220,74
426,47	11831,63
426,68	11864,39
426,88	11497,81
427,09	11439,95
427,29	11153,24
427,50	10981,21
427,70	10234,72
427,91	9896,30
428,12	9781,61
428,32	9799,02
428,53	9718,64
428,73	10229,09
428,94	10817,37
429,14	11114,33
429,35	12082,50
429,56	12625,22
429,76	12718,40
429,97	12746,05
430,17	12819,77
430,38	12990,78
430,58	13115,19
430,79	13231,93
430,99	13246,26
431,20	13184,82
431,40	12894,01
431,61	12831,55
431,82	12748,61
432,02	12511,04
432,23	12850,49
432,43	13313,33
432,64	12939,58
432,84	13589,30
433,05	13755,18
433,25	13690,67
433,46	14095,66
433,66	14469,41
433,87	14408,48
434,07	14470,44
434,28	14804,77
434,49	14772,51
434,69	14390,05
434,90	14328,61
435,10	14219,05
435,31	14371,11
435,51	13702,96
435,72	13663,02
435,92	13194,55
436,13	13355,32
436,33	13136,18
436,54	13408,56
436,74	13632,30
436,95	13956,40
437,15	13796,65
437,36	14133,03
437,56	13934,89
437,77	13919,53
437,97	14060,33
438,18	14272,81
438,38	14287,14
438,59	14631,71
438,79	14503,71
439,00	15034,65
439,20	14846,75
439,41	15038,23
439,61	15123,74
439,82	15385,37
440,02	15242,52
440,23	15190,30
440,43	15344,92
440,64	15425,81
440,84	15376,15
441,05	15511,32
441,25	15410,96
441,46	15398,68
441,66	15350,55
441,87	15668,50
442,07	15376,15
442,28	15659,28
442,48	15151,38
442,69	15305,49
442,89	15527,70
443,10	15121,18
443,30	14680,86
443,51	14901,53
443,71	14830,37
443,92	14595,87
444,12	14953,76
444,32	15310,10
444,53	15309,08
444,73	15615,76
444,94	15423,76
445,14	15750,42
445,35	15796,49
445,55	15735,57
445,76	15640,34
445,96	15898,89
446,17	15830,80
446,37	16114,44
446,58	15976,20
446,78	16010,51
446,98	15600,40
447,19	15942,41
447,39	16090,89
447,60	16506,63
447,80	16171,79
448,01	16517,38
448,21	16843,52
448,42	16947,97
448,62	16717,06
448,82	16777,98
449,03	16709,89
449,23	16307,98
449,44	16416,01
449,64	16589,57
449,85	16033,04
450,05	15818,51
450,26	15765,78
450,46	15416,60
450,66	15583,51
450,87	15399,70
451,07	15391,51
451,28	15495,44
451,48	15263,51
451,69	15918,86
451,89	15697,68
452,09	15998,73
452,30	15864,08
452,50	15917,84
452,71	15974,16
452,91	16340,23
453,12	16358,15
453,32	16305,93
453,52	16263,94
453,73	16674,56
453,93	16660,74
454,14	16423,69
454,34	16534,79
454,54	16649,47
454,75	16765,70
454,95	16685,83
455,16	16745,73
455,36	16751,87
455,56	16199,94
455,77	17074,43
455,97	16281,86
456,18	16288,01
456,38	16468,74
456,58	16470,79
456,79	16392,97
456,99	16736,51
457,20	16625,92
457,40	16467,72
457,60	16613,63
457,81	17102,59
458,01	16936,19
458,22	16771,33
458,42	17300,22
458,62	17276,15
458,83	17152,25
459,03	17668,34
459,23	17577,72
459,44	17545,97
459,64	17484,02
459,85	17743,60
460,05	17676,02
460,25	17536,76
460,46	17361,66
460,66	17754,87
460,86	17698,03
461,07	17908,97
461,27	17668,34
461,48	17335,54
461,68	17524,98
461,88	17445,11
462,09	17727,22
462,29	17549,56
462,49	17914,09
462,70	17754,87
462,90	18188,52
463,10	17754,35
463,31	18009,33
463,51	18174,19
463,72	18476,77
463,92	18002,67
464,12	17911,53
464,33	18134,25
464,53	18053,36
464,73	17966,32
464,94	18348,26
465,14	18202,86
465,34	18248,94
465,55	18631,91
465,75	18757,35
465,95	18321,64
466,16	18985,69
466,36	19185,37
466,56	18676,45
466,77	19148,51
466,97	19731,15
467,17	19603,67
467,38	19121,88
467,58	19355,35
467,78	19280,60
467,99	19410,14
468,19	19517,14
468,39	20366,03
468,60	19655,38
468,80	20080,33
469,00	20405,45
469,21	20716,74
469,41	21021,89
469,61	21234,88
469,82	21729,46
470,02	21777,59
470,22	21746,36
470,42	21845,17
470,63	22064,30
470,83	22165,68
471,03	22253,23
471,24	22576,81
471,44	22488,23
471,64	22977,70
471,85	22935,20
472,05	23904,40
472,25	23997,59
472,46	23626,39
472,66	24320,14
472,86	24217,74
473,06	24456,33
473,27	24759,43
473,47	24637,06
473,67	24793,73
473,88	24534,15
474,08	24986,24
474,28	24917,12
474,48	25417,85
474,69	25563,77
474,89	25910,39
475,09	26134,13
475,30	26406,00
475,50	26938,47
475,70	27116,13
475,90	27615,32
476,11	27205,22
476,31	27242,08
476,51	27795,03
476,72	28415,05
476,92	27981,40
477,12	28498,51
477,32	28864,07
477,53	28937,80
477,73	29389,89
477,93	29308,48
478,13	29450,30
478,34	29131,84
478,54	30234,67
478,74	29992,50
478,94	30292,53
479,15	30433,33
479,35	30493,74
479,55	30509,61
479,75	31108,65
479,96	31326,24
480,16	31117,35
480,36	31113,77
480,57	31574,05
480,77	31607,84
480,97	31245,35
481,17	31233,57
481,37	31457,82
481,58	31248,93
481,78	31152,16
481,98	31468,06
482,18	31411,23
482,39	31359,52
482,59	31095,85
482,79	30523,95
482,99	30092,85
483,20	29540,93
483,40	29100,10
483,60	28448,85
483,80	28114,00
484,01	27923,54
484,21	28066,39
484,41	28233,30
484,61	28697,67
484,81	29401,66
485,02	30079,03
485,22	30293,55
485,42	30690,86
485,62	31024,68
485,83	31315,49
486,03	31533,60
486,23	31739,93
486,43	31899,16
486,63	31885,85
486,84	31995,93
487,04	32370,71
487,24	32810,51
487,44	32917,00
487,64	33329,16
487,85	33584,64
488,05	33766,40
488,25	33911,29
488,45	33521,66
488,65	33887,23
488,86	33262,08
489,06	33486,34
489,26	32865,29
489,46	32541,20
489,66	32797,20
489,87	32501,78
490,07	32477,71
490,27	32385,04
490,47	33116,68
490,67	33016,84
490,88	33430,53
491,08	33380,87
491,28	33778,68
491,48	33405,95
491,68	33708,03
491,88	34086,39
492,09	33926,14
492,29	34141,18
492,49	34252,28
492,69	34752,49
492,89	34381,30
493,09	34203,13
493,30	34387,44
493,50	34197,49
493,70	34031,10
493,90	34282,48
494,10	34105,34
494,30	34516,47
494,51	34254,84
494,71	34376,69
494,91	34085,37
495,11	34347,00
495,31	34039,80
495,51	33913,85
495,72	33519,62
495,92	33374,21
496,12	33377,79
496,32	33268,23
496,52	33075,21
496,72	33297,92
496,92	33379,33
497,13	33143,30
497,33	33452,03
497,53	33216,52
497,73	33017,35
497,93	32892,43
498,13	32748,04
498,33	32438,29
498,54	32260,63
498,74	32073,75
498,94	31990,30
499,14	31736,35
499,34	31743,52
499,54	31706,65
499,74	31627,29
499,94	31964,70
500,15	31978,52
500,35	32177,17
500,55	32145,43
500,75	32388,63
500,95	32261,14
501,15	32423,95
501,35	32182,29
501,55	32083,99
501,76	32004,63
501,96	32153,11
502,16	31882,78
502,36	32236,05
502,56	32238,10
502,76	32536,59
502,96	33268,23
503,16	33110,53
503,36	33382,91
503,57	33527,81
503,77	33935,35
503,97	33937,91
504,17	34033,14
504,37	33684,48
504,57	33745,41
504,77	33375,23
504,97	33312,26
505,17	33426,43
505,37	33123,33
505,57	33234,95
505,78	33100,29
505,98	33414,66
506,18	33542,66
506,38	33768,96
506,58	33906,17
506,78	34064,89
506,98	34343,92
507,18	34292,21
507,38	34429,43
507,58	34612,21
507,78	34592,24
507,98	34746,86
508,19	34409,97
508,39	34538,48
508,59	34974,70
508,79	35016,17
508,99	35112,94
509,19	35553,76
509,39	35475,43
509,59	35402,21
509,79	35560,93
509,99	35576,29
510,19	35441,12
510,39	35242,47
510,59	35094,50
510,79	35281,38
510,99	34976,23
511,19	34821,61
511,39	35219,43
511,60	34900,97
511,80	34910,19
512,00	35004,91
512,20	35032,04
512,40	35211,24
512,60	35431,40
512,80	35349,99
513,00	35948,51
513,20	35628,51
513,40	35606,50
513,60	35579,87
513,80	35011,05
514,00	34434,55
514,20	33758,20
514,40	33641,98
514,60	32884,75
514,80	32571,92
515,00	32349,71
515,20	32241,17
515,40	32595,47
515,60	32800,27
515,80	32738,32
516,00	33100,81
516,20	33278,98
516,40	33576,96
516,60	33777,15
516,80	33936,89
517,00	34251,77
517,20	34807,79
517,40	35045,87
517,60	35457,51
517,80	35734,49
518,00	35665,38
518,20	35930,08
518,40	36048,35
518,60	35863,52
518,80	36021,72
519,00	36064,22
519,20	36375,00
519,40	36201,43
519,60	36165,59
519,80	36120,02
520,00	36153,30
520,20	35684,32
520,40	35677,15
520,60	35346,92
520,80	35766,75
521,00	35631,58
521,20	36075,99
521,40	35902,43
521,60	36305,37
521,80	36434,39
522,00	36453,33
522,20	36629,97
522,40	36328,92
522,60	36054,49
522,80	36309,46
523,00	36085,72
523,20	35847,65
523,40	35269,61
523,60	35152,87
523,80	34587,12
524,00	34166,26
524,20	33683,45
524,40	32969,74
524,60	32703,50
524,80	32873,48
525,00	32583,18
525,20	33110,02
525,40	33103,37
525,60	33447,94
525,80	33877,50
526,00	34384,37
526,20	34658,80
526,40	34431,47
526,60	34932,20
526,79	35199,97
526,99	34993,64
527,19	35202,53
527,39	34783,21
527,59	34993,13
527,79	34829,29
527,99	34710,51
528,19	34721,26
528,39	35292,13
528,59	34998,76
528,79	35093,99
528,99	34859,50
529,19	35148,78
529,39	34467,83
529,59	34270,71
529,79	34083,32
529,98	33729,02
530,18	33097,73
530,38	33135,11
530,58	32944,65
530,78	32991,24
530,98	33092,10
531,18	32686,61
531,38	32732,17
531,58	32944,14
531,78	32700,94
531,98	33271,81
532,18	33049,10
532,37	33332,23
532,57	33356,29
532,77	33611,26
532,97	33697,79
533,17	34061,30
533,37	33747,97
533,57	33927,16
533,77	33745,41
533,97	33397,25
534,17	33210,37
534,37	33233,41
534,56	32917,00
534,76	32864,27
534,96	32238,10
535,16	32570,90
535,36	32608,78
535,56	32734,73
535,76	32742,41
535,96	32747,53
536,16	32742,92
536,35	32622,61
536,55	32545,30
536,75	32261,14
536,95	32100,89
537,15	32063,00
537,35	31719,45
537,55	31550,49
537,75	31291,43
537,94	31083,05
538,14	30943,78
538,34	31091,75
538,54	31100,97
538,74	31078,95
538,94	30956,58
539,14	30956,07
539,34	30901,29
539,53	31204,39
539,73	31170,60
539,93	31411,23
540,13	31015,46
540,33	31145,00
540,53	31205,41
540,73	31253,54
540,92	31051,30
541,12	31391,78
541,32	31091,24
541,52	31355,94
541,72	31333,41
541,92	31489,06
542,11	31339,55
542,31	31405,60
542,51	31355,43
542,71	31204,90
542,91	31230,50
543,11	31363,62
543,30	31302,69
543,50	31137,83
543,70	31164,96
543,90	31122,98
544,10	30899,75
544,30	30922,28
544,49	30841,90
544,69	30812,20
544,89	30795,82
545,09	30865,45
545,29	30511,15
545,49	30654,51
545,68	30591,02
545,88	30651,95
546,08	30294,58
546,28	30681,13
546,48	30715,44
546,67	30658,60
546,87	30869,03
547,07	30854,70
547,27	30728,75
547,47	30764,59
547,67	30757,93
547,86	30708,27
548,06	30636,59
548,26	30953,51
548,46	30329,91
548,66	30467,12
548,85	30316,08
549,05	30451,25
549,25	30766,63
549,45	30707,24
549,65	30436,91
549,84	30962,73
550,04	30363,18
550,24	30264,37
550,44	30279,73
550,63	30343,73
550,83	30246,45
551,03	30293,55
551,23	30205,49
551,43	30405,17
551,62	30271,54
551,82	30209,59
552,02	30304,82
552,22	30378,54
552,41	30443,57
552,61	30306,35
552,81	30507,05
553,01	30523,44
553,21	30143,03
553,40	30160,44
553,60	29985,85
553,80	30328,37
554,00	29824,06
554,19	29966,90
554,39	29611,07
554,59	29244,48
554,79	29471,81
554,98	29282,37
555,18	29182,02
555,38	29176,39
555,58	29128,77
555,77	29268,03
555,97	28917,83
556,17	28829,26
556,37	28392,01
556,56	28589,64
556,76	28390,99
556,96	28152,91
557,16	27974,74
557,35	28309,07
557,55	28003,41
557,75	28415,57
557,95	28179,54
558,14	28420,69
558,34	28305,49
558,54	28464,21
558,73	28542,03
558,93	28400,21
559,13	28523,08
559,33	28370,51
559,52	28337,23
559,72	28012,12
559,92	28103,25
560,12	28002,39
560,31	28228,69
560,51	28218,45
560,71	28073,04
560,90	27883,61
561,10	27976,79
561,30	27711,58
561,50	27804,25
561,69	27825,75
561,89	27769,94
562,09	27576,41
562,28	27464,80
562,48	27790,94
562,68	27337,82
562,87	27331,68
563,07	26992,23
563,27	27172,96
563,47	26503,28
563,66	26847,85
563,86	26586,73
564,06	26630,76
564,25	26585,19
564,45	26809,96
564,65	26746,98
564,84	26631,27
565,04	26863,72
565,24	26716,78
565,43	26636,39
565,63	26518,12
565,83	26324,59
566,02	26056,82
566,22	26092,66
566,42	25810,55
566,61	25612,92
566,81	25323,13
567,01	25665,14
567,20	25628,28
567,40	25441,92
567,60	25244,80
567,79	25310,85
567,99	25116,29
568,19	24924,80
568,38	24772,23
568,58	24599,69
568,78	24551,05
568,97	24482,95
569,17	24582,28
569,37	24473,74
569,56	24617,10
569,76	25013,89
569,96	24804,49
570,15	24788,61
570,35	24803,97
570,55	24951,94
570,74	24854,15
570,94	24853,64
571,13	24696,97
571,33	24498,31
571,53	24746,63
571,72	24717,96
571,92	24389,26
572,12	24472,71
572,31	24356,49
572,51	24302,22
572,71	24165,52
572,90	24074,38
573,10	23834,77
573,29	23910,04
573,49	23919,25
573,69	23644,31
573,88	23595,16
574,08	23553,69
574,28	23596,70
574,47	23614,10
574,67	23740,05
574,86	23656,60
575,06	23777,94
575,26	23415,96
575,45	23356,57
575,65	23247,52
575,84	23279,26
576,04	23286,94
576,24	23229,60
576,43	23105,70
576,63	23175,33
576,82	23123,10
577,02	23053,47
577,22	23063,71
577,41	23127,71
577,61	23462,04
577,80	23334,04
578,00	23417,50
578,20	23536,79
578,39	23551,64
578,59	23677,59
578,78	23689,88
578,98	23661,21
579,17	23464,09
579,37	23735,96
579,57	23707,80
579,76	24186,00
579,96	23770,26
580,15	23749,78
580,35	23885,97
580,55	23880,34
580,74	23833,75
580,94	23935,63
581,13	23928,98
581,33	23911,06
581,52	23794,84
581,72	23772,82
581,91	23747,22
582,11	23842,96
582,31	23506,07
582,50	23763,09
582,70	23721,11
582,89	23553,18
583,09	23365,28
583,28	23321,76
583,48	22935,71
583,67	23138,97
583,87	23015,58
584,07	23099,04
584,26	23122,08
584,46	23023,78
584,65	23153,31
584,85	23110,30
585,04	22951,07
585,24	22834,34
585,43	22702,76
585,63	22536,36
585,82	22156,46
586,02	21978,29
586,21	21392,57
586,41	21141,69
586,61	20877,51
586,80	20601,54
587,00	20393,16
587,19	20293,83
587,39	19998,93
587,58	20326,60
587,78	20171,98
587,97	20586,18
588,17	20560,07
588,36	20974,27
588,56	20847,81
588,75	21069,50
588,95	21033,66
589,14	21026,50
589,34	21170,36
589,53	21166,78
589,73	21026,50
589,92	21217,47
590,12	21191,87
590,31	21152,45
590,51	21454,01
590,70	21117,12
590,90	21264,06
591,09	21531,32
591,29	21173,95
591,48	21110,46
591,68	21182,65
591,87	20947,65
592,07	20864,19
592,26	20894,91
592,46	20782,27
592,65	20603,59
592,85	20625,09
593,04	20857,03
593,24	20848,83
593,43	20953,79
593,63	20923,58
593,82	20767,43
594,01	21127,87
594,21	21180,60
594,40	21091,01
594,60	21117,63
594,79	21120,70
594,99	21157,57
595,18	21004,99
595,38	20946,11
595,57	21058,24
595,77	20766,92
595,96	20780,23
596,16	20851,39
596,35	20828,35
596,54	20774,08
596,74	20709,57
596,93	20784,83
597,13	20814,02
597,32	20709,06
597,52	20578,50
597,71	20807,36
597,91	20667,08
598,10	20732,10
598,29	20667,08
598,49	20732,61
598,68	20704,45
598,88	20654,28
599,07	20448,97
599,27	20557,00
599,46	20473,54
599,65	20323,53
599,85	20102,35
600,04	20365,51
600,24	20388,55
600,43	20446,92
600,63	20557,00
600,82	20628,17
601,01	20547,78
601,21	20757,70
601,40	20686,02
601,60	20659,40
601,79	20878,02
601,99	20836,55
602,18	20651,20
602,37	20803,78
602,57	20665,54
602,76	20843,20
602,96	20666,05
603,15	20734,15
603,34	20638,41
603,54	20698,31
603,73	20716,23
603,93	20706,50
604,12	20664,00
604,31	20747,97
604,51	20561,61
604,70	20708,04
604,90	20474,57
605,09	20550,34
605,28	20383,94
605,48	20425,42
605,67	20353,23
605,86	20291,79
606,06	20384,97
606,25	20303,56
606,45	20279,50
606,64	20323,02
606,83	19954,38
607,03	20093,13
607,22	19996,37
607,41	19797,20
607,61	19794,13
607,80	20026,06
608,00	19913,42
608,19	19770,58
608,38	19774,16
608,58	19935,95
608,77	19680,47
608,96	19750,10
609,16	19569,88
609,35	19745,49
609,54	19479,25
609,74	19678,93
609,93	19479,77
610,12	19485,40
610,32	19659,48
610,51	19496,66
610,71	19371,74
610,90	19302,11
611,09	19142,36
611,29	19090,65
611,48	19187,93
611,67	18939,61
611,87	19106,52
612,06	19001,57
612,25	19052,25
612,45	19141,34
612,64	19057,37
612,83	18949,34
613,03	19079,90
613,22	18967,26
613,41	18721,51
613,61	18808,55
613,80	18833,12
613,99	18567,40
614,18	18632,42
614,38	18588,39
614,57	18519,78
614,76	18543,33
614,96	18495,21
615,15	18748,13
615,34	18685,67
615,54	18804,45
615,73	19011,81
615,92	18909,41
616,12	18905,82
616,31	19072,22
616,50	18984,67
616,69	19118,81
616,89	19152,09
617,08	19241,18
617,27	19217,63
617,47	19369,69
617,66	19096,80
617,85	19317,98
618,05	19516,63
618,24	19514,58
618,43	19332,31
618,62	19618,00
618,82	19331,80
619,01	19513,05
619,20	19608,28
619,40	19298,52
619,59	19475,67
619,78	19337,94
619,97	19386,58
620,17	19508,95
620,36	19587,29
620,55	19278,04
620,74	19300,06
620,94	19322,07
621,13	19527,38
621,32	19472,09
621,51	19251,93
621,71	19403,99
621,90	19258,59
622,09	19321,05
622,29	19097,82
622,48	19225,31
622,67	19301,59
622,86	19122,91
623,06	19079,39
623,25	19076,32
623,44	18938,08
623,63	19137,76
623,83	19094,75
624,02	19087,58
624,21	19077,85
624,40	19141,34
624,59	19065,57
624,79	18868,45
624,98	18864,35
625,17	18489,57
625,36	18387,18
625,56	18290,92
625,75	18129,64
625,94	18022,12
626,13	18247,91
626,33	17919,73
626,52	18006,25
626,71	18175,21
626,90	18065,13
627,09	17814,26
627,29	17791,73
627,48	17902,32
627,67	17858,80
627,86	17894,13
628,05	17825,01
628,25	18092,78
628,44	17781,49
628,63	17902,32
628,82	17825,52
629,02	17755,38
629,21	17792,75
629,40	17657,07
629,59	17793,26
629,78	17915,63
629,98	17910,00
630,17	17851,12
630,36	17757,43
630,55	17863,41
630,74	17937,65
630,93	17870,58
631,13	17835,25
631,32	17738,48
631,51	17886,96
631,70	17795,31
631,89	17795,31
632,09	17708,79
632,28	17648,88
632,47	17822,96
632,66	17624,82
632,85	17754,87
633,04	17611,00
633,24	17557,24
633,43	17503,48
633,62	17640,18
633,81	17559,28
634,00	17463,03
634,19	17514,74
634,39	17272,57
634,58	17580,79
634,77	17492,21
634,96	17338,62
635,15	17472,25
635,34	17373,43
635,54	17555,19
635,73	17447,67
635,92	17516,79
636,11	17612,02
636,30	17543,92
636,49	17549,04
636,68	17259,26
636,88	17432,82
637,07	17246,46
637,26	17129,72
637,45	16987,39
637,64	17093,37
637,83	16905,98
638,02	16875,26
638,21	16958,72
638,41	16900,35
638,60	16707,84
638,79	16709,89
638,98	16846,08
639,17	16649,47
639,36	16600,83
639,55	16585,47
639,74	16573,19
639,94	16568,58
640,13	16529,67
640,32	16554,24
640,51	16557,32
640,70	16566,53
640,89	16587,52
641,08	16591,11
641,27	16495,88
641,46	16325,89
641,66	16434,95
641,85	16553,73
642,04	16263,43
642,23	16326,41
642,42	16410,89
642,61	16358,15
642,80	16183,56
642,99	16082,19
643,18	16128,27
643,37	15938,32
643,56	15939,34
643,76	15763,73
643,95	15670,54
644,14	15541,01
644,33	15629,07
644,52	15599,38
644,71	15352,09
644,90	15414,55
645,09	15427,35
645,28	15176,47
645,47	15057,69
645,66	15144,22
645,85	15121,18
646,04	14946,08
646,24	15017,24
646,43	14917,40
646,62	14828,83
646,81	14805,28
647,00	14792,99
647,19	14690,08
647,38	14556,96
647,57	14805,79
647,76	14708,51
647,95	14964,51
648,14	15088,92
648,33	14863,65
648,52	14888,73
648,71	14956,83
648,90	14777,63
649,09	14717,73
649,28	14776,61
649,47	14853,92
649,66	14710,56
649,85	14614,82
650,05	14836,51
650,24	14798,11
650,43	14793,50
650,62	14864,67
650,81	15026,46
651,00	14811,93
651,19	14763,29
651,38	14855,45
651,57	14713,12
651,76	14699,30
651,95	14627,62
652,14	14486,82
652,33	14545,70
652,52	14478,63
652,71	14258,47
652,90	14051,11
653,09	13912,88
653,28	13553,97
653,47	13362,48
653,66	12985,15
653,85	12962,62
654,04	12745,53
654,23	12697,92
654,42	12617,02
654,61	12873,53
654,80	12798,78
654,99	12973,37
655,18	13107,00
655,37	13422,39
655,56	13459,76
655,75	13611,31
655,94	13710,64
656,13	13756,72
656,32	14078,25
656,51	13929,26
656,70	14021,93
656,89	14048,55
657,08	14100,26
657,27	13961,51
657,46	14053,67
657,65	14125,86
657,84	14313,25
658,03	14137,13
658,22	14107,43
658,40	14321,96
658,59	14166,31
658,78	14061,87
658,97	14200,62
659,16	14391,08
659,35	14142,76
659,54	14217,51
659,73	14211,88
659,92	14220,07
660,11	14205,22
660,30	14294,31
660,49	14224,68
660,68	14301,99
660,87	14129,45
661,06	14125,35
661,25	14053,16
661,44	14001,96
661,63	13858,60
661,82	14021,93
662,01	13855,53
662,19	14014,76
662,38	13910,83
662,57	13931,31
662,76	13865,26
662,95	13884,72
663,14	13913,39
663,33	13880,62
663,52	13833,00
663,71	13883,69
663,90	13831,47
664,09	13879,08
664,28	13623,09
664,47	13800,75
664,65	13765,42
664,84	13877,04
665,03	13755,18
665,22	13714,73
665,41	13587,76
665,60	13713,20
665,79	13687,09
665,98	13719,85
666,17	13696,81
666,36	13598,00
666,55	13723,95
666,73	13664,56
666,92	13735,21
667,11	13767,98
667,30	13555,51
667,49	13627,70
667,68	13554,48
667,87	13643,57
668,06	13357,36
668,25	13614,90
668,43	13429,04
668,62	13357,36
668,81	13502,26
669,00	13390,64
669,19	13286,20
669,38	13473,07
669,57	13196,09
669,76	13210,93
669,94	13151,03
670,13	13184,82
670,32	12998,97
670,51	13221,69
670,70	13261,11
670,89	13123,38
671,08	13205,30
671,26	13170,49
671,45	13251,38
671,64	13155,13
671,83	13099,32
672,02	13115,70
672,21	13095,22
672,40	12955,96
672,58	12965,18
672,77	13029,18
672,96	12889,40
673,15	13017,91
673,34	12962,11
673,53	12980,03
673,71	12889,40
673,90	12923,71
674,09	12889,40
674,28	13026,11
674,47	12775,23
674,66	12838,20
674,84	12748,61
675,03	12817,21
675,22	12865,85
675,41	12781,88
675,60	12704,57
675,79	12580,16
675,97	12663,10
676,16	12692,29
676,35	12653,37
676,54	12687,17
676,73	12561,73
676,91	12559,17
677,10	12503,36
677,29	12465,99
677,48	12451,14
677,67	12465,47
677,86	12466,50
678,04	12540,22
678,23	12455,75
678,42	12280,13
678,61	12412,23
678,80	12396,35
678,98	12277,57
679,17	12346,18
679,36	12368,20
679,55	12219,21
679,73	12250,95
679,92	12228,42
680,11	12204,87
680,30	12244,81
680,49	12027,21
680,67	12217,67
680,86	12020,04
681,05	12030,28
681,24	12214,60
681,42	11916,11
681,61	11869,51
681,80	11688,78
681,99	11855,69
682,18	11667,79
682,36	11774,28
682,55	11783,50
682,74	11690,83
682,93	11722,06
683,11	11768,65
683,30	11474,77
683,49	11544,40
683,68	11367,76
683,86	11030,36
684,05	10735,45
684,24	10156,90
684,43	9638,76
684,61	9262,45
684,80	8853,88
684,99	8510,85
685,18	8424,83
685,36	8408,45
685,55	8231,81
685,74	8352,13
685,93	8274,31
686,11	8376,70
686,30	8296,32
686,49	8278,91
686,67	8397,70
686,86	8355,20
687,05	8395,65
687,24	8478,08
687,42	8638,84
687,61	8597,88
687,80	8749,43
687,99	8779,13
688,17	8834,43
688,36	8916,86
688,55	9027,96
688,73	9097,08
688,92	9213,30
689,11	9281,39
689,29	9340,79
689,48	9393,52
689,67	9590,64
689,86	9591,66
690,04	9641,84
690,23	9678,19
690,42	9760,62
690,60	9739,63
690,79	9722,22
690,98	9619,82
691,16	9622,38
691,35	9597,29
691,54	9647,98
691,72	9457,01
691,91	9539,95
692,10	9492,85
692,29	9612,14
692,47	9453,94
692,66	9491,82
692,85	9483,12
693,03	9393,01
693,22	9458,54
693,41	9406,32
693,59	9630,06
693,78	9620,33
693,97	9650,03
694,15	9643,88
694,34	9805,16
694,53	9965,93
694,71	9771,88
694,90	9818,47
695,09	9891,69
695,27	9898,86
695,46	9981,29
695,64	9936,23
695,83	9794,41
696,02	9747,82
696,20	9650,54
696,39	9551,73
696,58	9491,31
696,76	9594,22
696,95	9465,71
697,14	9421,17
697,32	9325,43
697,51	9256,82
697,70	9309,04
697,88	9174,90
698,07	9130,87
698,25	9185,65
698,44	9106,29
698,63	9166,71
698,81	9063,80
699,00	8951,67
699,19	8927,10
699,37	9015,16
699,56	8877,94
699,74	8887,67
699,93	8955,26
700,12	8844,67
700,30	8903,03
700,49	8912,76
700,67	8917,37
700,86	9033,08
701,05	8994,17
701,23	9001,33
701,42	9013,62
701,60	9054,07
701,79	9094,52
701,98	9015,16
702,16	9166,71
702,35	9086,33
702,53	8971,64
702,72	9113,97
702,91	8986,49
703,09	8993,14
703,28	9000,31
703,46	8886,14
703,65	8974,20
703,83	8875,38
704,02	8901,50
704,21	8881,02
704,39	8952,18
704,58	8795,51
704,76	8936,82
704,95	8826,23
705,13	8768,89
705,32	8866,17
705,51	8855,93
705,69	8976,25
705,88	8889,21
706,06	8840,57
706,25	8892,28
706,43	8821,11
706,62	8708,99
706,80	8776,06
706,99	8781,18
707,18	8805,24
707,36	8788,35
707,55	8713,60
707,73	8791,93
707,92	8608,64
708,10	8651,13
708,29	8592,76
708,47	8702,84
708,66	8565,12
708,84	8629,63
709,03	8469,37
709,21	8597,88
709,40	8486,27
709,59	8579,97
709,77	8450,94
709,96	8445,82
710,14	8412,54
710,33	8383,87
710,51	8412,54
710,70	8521,09
710,88	8371,58
711,07	8330,11
711,25	8276,87
711,44	8281,99
711,62	8205,19
711,81	8235,39
711,99	8146,82
712,18	8168,84
712,36	8073,60
712,55	7956,87
712,73	8102,28
712,92	7943,05
713,10	7904,14
713,29	7939,46
713,47	7821,19
713,66	7747,47
713,84	7613,32
714,03	7483,28
714,21	7330,70
714,40	7076,24
714,58	6914,97
714,77	6744,99
714,95	6609,82
715,14	6538,14
715,32	6342,56
715,51	6177,19
715,69	6136,23
715,87	5885,86
716,06	5768,62
716,24	5682,09
716,43	5654,95
716,61	5546,92
716,80	5496,75
716,98	5388,72
717,17	5311,92
717,35	5271,47
717,54	5268,91
717,72	5327,79
717,91	5223,86
718,09	5349,29
718,27	5434,80
718,46	5531,05
718,64	5570,99
718,83	5841,32
719,01	5889,45
719,20	5975,46
719,38	6086,05
719,57	6203,81
719,75	6279,07
719,93	6211,49
720,12	6402,97
720,30	6300,06
720,49	6319,52
720,67	6171,04
720,86	6060,45
721,04	5991,33
721,22	5812,14
721,41	5816,74
721,59	5718,95
721,78	5659,05
721,96	5595,05
722,14	5622,70
722,33	5497,26
722,51	5521,32
722,70	5419,95
722,88	5471,66
723,06	5422,00
723,25	5399,98
723,43	5415,34
723,62	5483,44
723,80	5456,30
723,98	5493,16
724,17	5415,34
724,35	5420,97
724,54	5389,23
724,72	5412,27
724,90	5423,53
725,09	5444,01
725,27	5390,77
725,46	5380,53
725,64	5352,37
725,82	5382,57
726,01	5278,64
726,19	5363,12
726,38	5368,75
726,56	5295,02
726,74	5299,12
726,93	5309,87
727,11	5236,14
727,29	5399,47
727,48	5292,46
727,66	5289,90
727,84	5293,49
728,03	5394,86
728,21	5312,43
728,40	5389,74
728,58	5362,61
728,76	5315,50
728,95	5386,16
729,13	5367,73
729,31	5470,64
729,50	5444,52
729,68	5632,43
729,86	5605,29
730,05	5685,16
730,23	5649,83
730,41	5650,35
730,60	5818,28
730,78	5836,71
730,96	5811,62
731,15	5909,93
731,33	6034,34
731,51	5953,45
731,70	5907,37
731,88	6060,96
732,06	6005,67
732,25	6051,24
732,43	6034,34
732,61	6037,41
732,80	5967,27
732,98	5964,20
733,16	5953,96
733,34	5985,19
733,53	5974,95
733,71	5818,79
733,89	5871,01
734,08	5889,45
734,26	5872,04
734,44	5846,44
734,63	5867,94
734,81	5833,64
734,99	5937,06
735,18	5853,09
735,36	5874,09
735,54	5930,92
735,72	5912,49
735,91	5832,10
736,09	5831,59
736,27	5811,11
736,46	5810,60
736,64	5756,84
736,82	5853,09
737,00	5765,54
737,19	5744,55
737,37	5787,56
737,55	5827,50
737,73	5878,18
737,92	5888,93
738,10	5816,23
738,28	5796,78
738,47	5722,54
738,65	5754,28
738,83	5789,10
739,01	5801,90
739,20	5744,04
739,38	5718,95
739,56	5731,24
739,74	5746,09
739,93	5642,15
740,11	5730,73
740,29	5726,12
740,47	5695,91
740,66	5741,99
740,84	5653,42
741,02	5756,33
741,20	5658,54
741,38	5669,29
741,57	5662,63
741,75	5718,44
741,93	5733,80
742,11	5593,00
742,30	5627,82
742,48	5683,63
742,66	5786,02
742,84	5642,15
743,03	5649,83
743,21	5619,11
743,39	5629,87
743,57	5527,47
743,75	5585,32
743,94	5609,39
744,12	5590,44
744,30	5546,92
744,48	5563,82
744,66	5593,51
744,85	5610,41
745,03	5519,79
745,21	5607,34
745,39	5569,45
745,57	5587,37
745,76	5497,77
745,94	5531,56
746,12	5580,20
746,30	5499,31
746,48	5574,57
746,67	5530,54
746,85	5527,47
747,03	5547,95
747,21	5541,29
747,39	5537,20
747,57	5511,08
747,76	5561,77
747,94	5511,60
748,12	5500,84
748,30	5478,83
748,48	5567,92
748,67	5462,44
748,85	5577,64
749,03	5574,06
749,21	5636,01
749,39	5546,41
749,57	5611,95
749,75	5608,87
749,94	5668,27
750,12	5597,10
750,30	5596,07
750,48	5661,61
750,66	5717,42
750,84	5698,99
751,03	5690,28
751,21	5667,75
751,39	5773,74
751,57	5838,76
751,75	5737,38
751,93	5757,35
752,11	5883,30
752,29	5790,12
752,48	5883,81
752,66	5858,73
752,84	5818,79
753,02	5907,88
753,20	5878,69
753,38	5838,25
753,56	5766,57
753,74	5777,32
753,93	5926,82
754,11	5860,26
754,29	5908,39
754,47	5814,18
754,65	5839,27
754,83	5893,03
755,01	5923,24
755,19	5856,68
755,37	5861,29
755,56	5795,75
755,74	5810,09
755,92	5728,17
756,10	5752,23
756,28	5692,84
756,46	5476,27
756,64	5243,31
756,82	4858,81
757,00	4434,36
757,18	4068,80
757,36	3520,46
757,55	3108,82
757,73	2697,17
757,91	2222,56
758,09	1947,11
758,27	1674,73
758,45	1484,27
758,63	1417,71
758,81	1405,42
758,99	1380,33
759,17	1518,06
759,35	1497,58
759,53	1634,28
759,71	1563,11
759,89	1534,95
760,08	1498,09
760,26	1525,22
760,44	1489,90
760,62	1418,73
760,80	1397,74
760,98	1413,10
761,16	1385,96
761,34	1380,84
761,52	1479,15
761,70	1583,08
761,88	1578,47
762,06	1690,60
762,24	1786,34
762,42	1902,05
762,60	2027,49
762,78	2131,42
762,96	2259,42
763,14	2329,05
763,32	2502,62
763,50	2637,27
763,68	2714,07
763,86	2939,86
764,04	3040,21
764,22	3126,74
764,40	3277,26
764,58	3392,97
764,76	3588,55
764,94	3637,70
765,12	3732,42
765,30	3795,91
765,48	3904,45
765,66	3897,28
765,84	4065,73
766,02	4072,39
766,20	4112,83
766,38	4233,66
766,56	4198,34
766,74	4257,22
766,92	4301,76
767,10	4300,22
767,28	4323,26
767,46	4279,23
767,64	4242,37
767,82	4266,43
768,00	4257,73
768,18	4232,64
768,36	4277,69
768,54	4345,28
768,72	4272,57
768,90	4173,25
769,08	4225,47
769,26	4158,40
769,44	4240,83
769,62	4043,71
769,80	4245,95
769,98	4136,90
770,16	4124,10
770,34	4178,88
770,52	4172,74
770,70	4040,13
770,88	4074,95
771,06	4114,88
771,24	4095,43
771,42	3978,18
771,60	3952,58
771,78	3953,09
771,96	3984,32
772,13	3855,81
772,31	3910,08
772,49	3810,25
772,67	3812,81
772,85	3807,17
773,03	3837,38
773,21	3774,41
773,39	3774,41
773,57	3725,26
773,75	3697,61
773,93	3733,96
774,11	3724,23
774,29	3725,77
774,47	3687,88
774,64	3670,47
774,82	3677,13
775,00	3647,43
775,18	3591,11
775,36	3542,47
775,54	3630,02
775,72	3561,93
775,90	3552,71
776,08	3533,26
776,26	3434,44
776,43	3452,36
776,61	3419,08
776,79	3407,31
776,97	3411,92
777,15	3425,74
777,33	3418,06
777,51	3360,20
777,69	3358,67
777,87	3352,01
778,04	3296,21
778,22	3306,96
778,40	3396,56
778,58	3304,40
778,76	3272,65
778,94	3199,95
779,12	3292,11
779,30	3243,98
779,47	3209,68
779,65	3200,98
779,83	3156,94
780,01	3222,48
780,19	3122,64
780,37	3168,21
780,55	3039,19
780,73	3097,04
780,90	3072,98
781,08	3090,38
781,26	3073,49
781,44	3054,55
781,62	3044,82
781,80	2971,60
781,97	3003,35
782,15	3001,81
782,33	2953,17
782,51	2926,55
782,69	2892,24
782,87	2843,09
783,04	2972,11
783,22	2865,62
783,40	2892,76
783,58	2772,95
783,76	2794,45
783,94	2820,56
784,11	2806,23
784,29	2715,09
784,47	2771,41
784,65	2706,39
784,83	2735,06
785,01	2616,28
785,18	2702,81
785,36	2667,99
785,54	2649,05
785,72	2610,65
785,90	2597,34
786,07	2586,07
786,25	2596,82
786,43	2601,94
786,61	2511,32
786,79	2520,03
786,96	2479,07
787,14	2438,11
787,32	2443,23
787,50	2389,98
787,67	2474,97
787,85	2392,03
788,03	2435,55
788,21	2332,12
788,39	2317,28
788,56	2352,09
788,74	2365,40
788,92	2344,41
789,10	2325,47
789,27	2287,58
789,45	2290,65
789,63	2278,88
789,81	2234,33
789,99	2225,63
790,16	2274,27
790,34	2196,45
790,52	2246,11
790,70	2211,81
790,87	2203,10
791,05	2239,45
791,23	2205,66
791,41	2229,21
791,58	2197,47
791,76	2193,89
791,94	2220,51
792,12	2105,82
792,29	2149,34
792,47	2195,93
792,65	2140,13
792,82	2101,73
793,00	2183,65
793,18	2159,07
793,36	2129,89
793,53	2046,43
793,71	2023,91
793,89	1992,67
794,07	2075,62
794,24	1977,83
794,42	2053,09
794,60	1948,64
794,77	2009,06
794,95	2011,62
795,13	2018,79
795,31	2029,54
795,48	2032,61
795,66	1946,08
795,84	1969,63
796,01	1939,43
796,19	2066,91
796,37	1927,65
796,54	1956,83
796,72	1936,87
796,90	1904,61
797,08	1880,04
797,25	1890,79
797,43	1902,05
797,61	1873,89
797,78	1828,84
797,96	1784,80
798,14	1820,64
798,31	1800,68
798,49	1806,31
798,67	1753,06
798,84	1824,23
799,02	1765,35
799,20	1767,40
799,37	1690,60
799,55	1765,35
799,73	1738,21
799,90	1738,21
800,08	1655,27
800,26	1716,71
800,43	1717,22
800,61	1758,69
800,79	1681,38
800,96	1702,89
801,14	1648,61
801,32	1674,21
801,49	1656,29
801,67	1617,38
801,84	1669,09
802,02	1610,73
802,20	1611,24
802,37	1580,01
802,55	1663,97
802,73	1574,38
802,90	1624,55
803,08	1655,27
803,26	1598,95
803,43	1643,49
803,61	1585,64
803,78	1596,90
803,96	1587,69
804,14	1622,50
804,31	1598,44
804,49	1600,49
804,67	1524,71
804,84	1592,30
805,02	1599,98
805,19	1606,12
805,37	1541,61
805,55	1462,76
805,72	1509,35
805,90	1515,50
806,07	1552,36
806,25	1538,02
806,43	1502,70
806,60	1527,27
806,78	1532,39
806,95	1445,35
807,13	1464,30
807,30	1458,67
807,48	1413,61
807,66	1435,63
807,83	1468,91
808,01	1439,21
808,18	1401,83
808,36	1319,40
808,54	1379,82
808,71	1343,47
808,89	1331,18
809,06	1357,29
809,24	1299,44
809,41	1313,26
809,59	1319,92
809,76	1276,91
809,94	1327,60
810,12	1331,69
810,29	1198,06
810,47	1216,49
810,64	1246,19
810,82	1231,85
810,99	1238,51
811,17	1163,76
811,34	1127,92
811,52	1104,37
811,69	1176,05
811,87	1115,12
812,05	1081,84
812,22	1089,52
812,40	1056,24
812,57	1065,46
812,75	962,03
812,92	1034,22
813,10	1025,52
813,27	941,04
813,45	935,41
813,62	904,69
813,80	975,35
813,97	905,20
814,15	909,81
814,32	895,47
814,50	955,89
814,67	865,27
814,85	889,33
815,02	832,50
815,20	916,98
815,37	897,52
815,55	858,10
815,72	815,60
815,90	888,31
816,07	881,14
816,25	852,98
816,42	906,74
816,60	910,83
816,77	857,59
816,95	868,34
817,12	869,87
817,30	822,26
817,47	852,47
817,65	867,83
817,82	829,94
818,00	914,42
818,17	943,09
818,35	886,26
818,52	932,34
818,70	916,98
818,87	835,06
819,04	908,79
819,22	869,87
819,39	884,72
819,57	842,23
819,74	880,63
819,92	879,60
820,09	784,88
820,27	828,40
820,44	805,88
820,62	807,92
820,79	714,74
820,96	782,84
821,14	766,45
821,31	738,80
821,49	777,72
821,66	782,32
821,84	790,00
822,01	812,53
822,18	841,72
822,36	811,00
822,53	808,44
822,71	799,73
822,88	772,60
823,06	880,11
823,23	783,86
823,40	814,58
823,58	833,01
823,75	765,43
823,93	811,51
824,10	821,24
824,27	852,98
824,45	831,48
824,62	835,06
824,80	795,12
824,97	798,20
825,14	776,69
825,32	827,38
825,49	763,38
825,67	837,11
825,84	745,46
826,01	802,29
826,19	750,07
826,36	785,91
826,54	751,60
826,71	780,28
826,88	778,23
827,06	756,21
827,23	732,15
827,40	721,40
827,58	733,17
827,75	751,09
827,93	756,21
828,10	757,24
828,27	696,31
828,45	728,56
828,62	678,39
828,79	739,32
828,97	735,73
829,14	722,42
829,31	727,03
829,49	697,85
829,66	731,12
829,83	732,15
830,01	675,32
830,18	715,77
830,35	682,49
830,53	710,13
830,70	700,41
830,87	761,84
831,05	672,76
831,22	677,37
831,39	627,19
831,57	731,12
831,74	706,04
831,91	678,90
832,09	681,46
832,26	680,95
832,43	689,65
832,61	687,61
832,78	718,84
832,95	692,21
833,13	652,79
833,30	677,37
833,47	735,73
833,65	689,65
833,82	695,80
833,99	796,66
834,16	672,25
834,34	640,50
834,51	705,01
834,68	714,23
834,86	723,44
835,03	620,53
835,20	688,12
835,38	625,65
835,55	730,61
835,72	715,77
835,89	637,43
836,07	693,75
836,24	694,26
836,41	703,99
836,58	686,07
836,76	646,13
836,93	628,21
837,10	694,26
837,28	703,48
837,45	695,29
837,62	692,21
837,79	684,02
837,97	716,79
838,14	667,64
838,31	660,47
838,48	654,84
838,66	688,12
838,83	650,74
839,00	658,93
839,17	670,20
839,35	642,04
839,52	642,55
839,69	598,52
839,86	630,26
840,04	636,92
840,21	669,69
840,38	614,39
840,55	628,73
840,72	654,33
840,90	633,33
841,07	609,27
841,24	577,02
841,41	592,89
841,59	630,26
841,76	610,29
841,93	622,07
842,10	592,89
842,27	570,36
842,45	604,15
842,62	588,28
842,79	603,13
842,96	615,41
843,13	595,45
843,31	579,06
843,48	534,01
843,65	598,52
843,82	608,25
843,99	612,85
844,17	530,42
844,34	582,14
844,51	602,10
844,68	570,36
844,85	561,66
845,02	593,40
845,20	622,58
845,37	564,22
845,54	575,99
845,71	629,75
845,88	536,57
846,06	584,18
846,23	549,88
846,40	539,13
846,57	582,65
846,74	523,26
846,91	556,54
847,09	584,70
847,26	449,02
847,43	541,18
847,60	536,06
847,77	505,34
847,94	486,90
848,11	562,17
848,29	484,86
848,46	459,26
848,63	503,29
848,80	501,75
848,97	450,55
849,14	529,40
849,31	460,28
849,49	519,16
849,66	520,70
849,83	489,46
850,00	483,83
850,17	489,98
850,34	502,26
850,51	502,78
850,68	484,34
850,85	494,58
851,03	497,66
851,20	459,77
851,37	485,37
851,54	473,08
851,71	419,83
851,88	420,86
852,05	397,82
852,22	420,86
852,39	420,35
852,57	423,93
852,74	392,19
852,91	433,66
853,08	377,85
853,25	391,67
853,42	398,33
853,59	399,87
853,76	392,70
853,93	363,00
854,10	424,95
854,27	403,45
854,44	384,51
854,62	421,37
854,79	360,95
854,96	455,16
855,13	416,76
855,30	424,95
855,47	457,21
855,64	391,16
855,81	377,34
855,98	435,19
856,15	404,99
856,32	438,78
856,49	453,63
856,66	357,88
856,83	359,93
857,00	442,36
857,17	397,82
857,34	373,75
857,51	419,83
857,69	447,99
857,86	374,27
858,03	392,70
858,20	430,59
858,37	394,75
858,54	396,79
858,71	357,88
858,88	380,92
859,05	416,76
859,22	395,26
859,39	326,65
859,56	412,67
859,73	379,90
859,90	367,61
860,07	400,38
860,24	411,13
860,41	381,95
860,58	341,50
860,75	382,46
860,92	387,58
861,09	392,70
861,26	317,44
861,43	368,12
861,60	310,27
861,77	336,38
861,94	375,80
862,11	347,13
862,28	305,66
862,45	375,29
862,62	321,02
862,79	329,72
862,96	299,52
863,13	387,07
863,30	280,57
863,47	373,75
863,64	333,82
863,81	289,28
863,98	336,89
864,15	299,52
864,32	249,85
864,48	326,14
864,65	267,77
864,82	260,60
864,99	286,20
865,16	284,16
865,33	306,17
865,50	267,26
865,67	315,90
865,84	286,20
866,01	290,30
866,18	248,32
866,35	266,24
866,52	299,00
866,69	278,52
866,86	314,36
867,03	325,63
867,20	285,69
867,37	299,00
867,53	297,98
867,70	263,16
867,87	221,18
868,04	278,52
868,21	358,91
868,38	239,10
868,55	272,89
868,72	271,87
868,89	276,99
869,06	288,25
869,23	293,88
869,40	270,33
869,56	329,21
869,73	220,67
869,90	300,03
870,07	270,84
870,24	244,73
870,41	305,66
870,58	206,33
870,75	241,66
870,92	269,31
871,08	239,61
871,25	263,16
871,42	246,27
871,59	237,56
871,76	292,35
871,93	233,47
872,10	256,00
872,27	252,41
872,43	243,71
872,60	271,87
872,77	247,80
872,94	192,00
873,11	194,56
873,28	252,92
873,45	217,60
873,62	277,50
873,78	182,78
873,95	198,14
874,12	177,15
874,29	189,95
874,46	252,41
874,63	204,28
874,79	195,07
874,96	233,47
875,13	209,92
875,30	171,52
875,47	173,05
875,64	238,59
875,80	202,24
875,97	224,76
876,14	230,40
876,31	231,42
876,48	179,71
876,65	200,70
876,81	131,07
876,98	191,49
877,15	198,65
877,32	233,98
877,49	190,46
877,65	196,09
877,82	195,58
877,99	230,91
878,16	183,29
878,33	183,81
878,49	171,52
878,66	135,68
878,83	155,65
879,00	159,74
879,17	199,16
879,33	142,33
879,50	154,62
879,67	188,93
879,84	137,73
880,01	209,40
880,17	155,65
880,34	169,98
880,51	181,25
880,68	231,42
880,84	187,39
881,01	187,90
881,18	217,08
881,35	196,61
881,52	166,91
881,68	151,04
881,85	93,18
882,02	185,85
882,19	178,17
882,35	150,53
882,52	86,53
882,69	138,24
882,86	169,47
883,02	156,16
883,19	159,23
883,36	163,84
883,53	146,43
883,69	167,93
883,86	180,22
884,03	163,84
884,19	129,53
884,36	140,29
884,53	121,85
884,70	142,33
884,86	139,26
885,03	137,73
885,20	112,64
885,37	166,40
885,53	116,22
885,70	136,19
885,87	98,30
886,03	123,90
886,20	119,29
886,37	77,82
886,54	125,44
886,70	128,00
886,87	114,17
887,04	94,72
887,20	114,69
887,37	160,77
887,54	107,52
887,70	142,33
887,87	167,42
888,04	145,92
888,20	139,26
888,37	150,01
888,54	145,41
888,71	113,15
888,87	98,81
889,04	142,85
889,21	84,99
889,37	99,84
889,54	107,52
889,71	154,11
889,87	62,46
890,04	138,75
890,21	138,75
890,37	138,75
890,54	138,75
890,71	138,75
890,87	138,75
>>>>>End Processed Spectral Data<<<<<
