SpectraSuite Datei
++++++++++++++++++++++++++++++++++++
Datum: Mon Nov 11 14:57:11 CET 2019
Benutzer: user
Dark-Spektrum vorhanden: Ja
Referenz-Spektrum vorhanden: Nein
Zahl der probierten Teilspektren: 1
Spektrometer: USB4F04607
Integrationszeit (usec): 130000 (USB4F04607)
Spektren Durchschnitt berechnet: 4 (USB4F04607)
Boxcar Glättung: 0 (USB4F04607)
Dunkelstromkorrektur: Nein (USB4F04607)
Puls/Lampe aktiviert: Nein (USB4F04607)
Correct for Detector Non-linearity: Nein (USB4F04607)
Streulichtkorrektur: Nein (USB4F04607)
Anzahl Pixel in verarbeitetem Spektrum: 3648
>>>>>Begin Processed Spectral Data<<<<<
177,66	12,80
177,88	12,80
178,10	12,80
178,32	69,12
178,53	87,55
178,75	128,51
178,97	76,80
179,19	85,50
179,40	141,31
179,62	129,02
179,84	126,97
180,05	113,66
180,27	112,64
180,49	131,58
180,71	125,44
180,92	64,00
181,14	74,75
181,36	81,41
181,58	125,95
181,79	97,79
182,01	105,98
182,23	153,60
182,44	182,27
182,66	111,10
182,88	105,98
183,10	121,85
183,31	148,48
183,53	174,08
183,75	116,73
183,96	110,59
184,18	100,35
184,40	117,76
184,62	145,92
184,83	109,57
185,05	168,96
185,27	180,22
185,48	83,97
185,70	152,06
185,92	125,95
186,14	98,30
186,35	122,88
186,57	102,40
186,79	108,03
187,00	110,08
187,22	112,13
187,44	101,89
187,66	117,25
187,87	95,23
188,09	119,81
188,31	110,59
188,52	132,61
188,74	124,93
188,96	180,22
189,17	116,22
189,39	148,48
189,61	164,35
189,82	105,47
190,04	137,21
190,26	104,45
190,48	166,91
190,69	148,48
190,91	146,43
191,13	164,35
191,34	91,13
191,56	103,93
191,78	157,69
191,99	167,42
192,21	167,42
192,43	172,03
192,64	140,80
192,86	187,39
193,08	126,46
193,29	92,67
193,51	106,49
193,73	144,89
193,94	120,83
194,16	171,01
194,38	84,99
194,60	162,81
194,81	109,57
195,03	145,41
195,25	123,39
195,46	92,67
195,68	84,48
195,90	140,29
196,11	146,43
196,33	131,58
196,55	121,85
196,76	130,56
196,98	122,37
197,20	156,67
197,41	151,55
197,63	132,09
197,85	123,39
198,06	142,85
198,28	184,32
198,50	109,57
198,71	101,89
198,93	167,42
199,14	149,50
199,36	83,45
199,58	106,49
199,79	116,22
200,01	80,38
200,23	156,16
200,44	142,33
200,66	62,46
200,88	149,50
201,09	90,62
201,31	173,05
201,53	172,03
201,74	143,87
201,96	115,20
202,18	112,13
202,39	99,33
202,61	131,58
202,83	108,03
203,04	120,83
203,26	128,51
203,47	169,47
203,69	110,08
203,91	155,65
204,12	95,23
204,34	124,93
204,56	146,94
204,77	162,81
204,99	117,25
205,21	115,71
205,42	117,25
205,64	151,04
205,85	153,09
206,07	160,25
206,29	102,40
206,50	127,49
206,72	113,66
206,94	133,63
207,15	157,69
207,37	103,42
207,58	133,12
207,80	136,70
208,02	58,37
208,23	81,92
208,45	139,26
208,67	83,97
208,88	117,76
209,10	137,73
209,31	154,11
209,53	124,41
209,75	122,88
209,96	71,17
210,18	119,29
210,40	96,25
210,61	117,25
210,83	169,98
211,04	121,34
211,26	102,40
211,48	143,36
211,69	97,79
211,91	155,65
212,12	140,29
212,34	116,73
212,56	138,75
212,77	74,75
212,99	134,14
213,20	140,29
213,42	52,22
213,64	137,21
213,85	126,46
214,07	114,69
214,28	159,74
214,50	165,37
214,72	143,87
214,93	115,20
215,15	119,29
215,36	131,07
215,58	98,30
215,80	118,27
216,01	163,33
216,23	79,36
216,44	139,77
216,66	91,13
216,88	117,76
217,09	127,49
217,31	131,07
217,52	100,35
217,74	98,81
217,95	105,47
218,17	134,14
218,39	139,77
218,60	138,75
218,82	144,89
219,03	96,25
219,25	152,57
219,47	104,96
219,68	151,55
219,90	101,89
220,11	123,39
220,33	126,97
220,54	122,88
220,76	92,16
220,98	155,65
221,19	129,53
221,41	152,57
221,62	88,06
221,84	115,71
222,05	137,21
222,27	80,38
222,48	173,57
222,70	105,98
222,92	125,44
223,13	133,63
223,35	122,88
223,56	124,41
223,78	111,61
223,99	135,17
224,21	111,10
224,43	75,77
224,64	140,29
224,86	126,97
225,07	130,56
225,29	135,68
225,50	130,05
225,72	88,06
225,93	119,29
226,15	147,97
226,37	135,17
226,58	146,43
226,80	105,98
227,01	141,31
227,23	51,20
227,44	140,80
227,66	144,38
227,87	180,22
228,09	129,02
228,30	164,86
228,52	133,63
228,74	129,53
228,95	125,95
229,17	162,81
229,38	175,61
229,60	118,78
229,81	104,45
230,03	144,38
230,24	89,09
230,46	115,71
230,67	141,31
230,89	161,79
231,10	102,40
231,32	97,79
231,53	180,73
231,75	123,39
231,97	108,54
232,18	118,27
232,40	159,23
232,61	91,13
232,83	114,17
233,04	148,99
233,26	174,08
233,47	94,21
233,69	119,81
233,90	121,85
234,12	123,39
234,33	111,61
234,55	110,08
234,76	129,02
234,98	111,10
235,19	161,79
235,41	148,48
235,62	69,12
235,84	128,00
236,05	128,00
236,27	157,18
236,48	111,61
236,70	151,55
236,91	147,45
237,13	190,97
237,34	99,33
237,56	124,93
237,77	136,70
237,99	101,37
238,20	81,92
238,42	153,09
238,63	112,13
238,85	105,47
239,06	130,56
239,28	129,02
239,49	134,14
239,71	100,86
239,92	117,25
240,14	124,93
240,35	136,70
240,57	152,06
240,78	174,59
241,00	150,01
241,21	131,07
241,43	140,29
241,64	130,56
241,86	131,58
242,07	132,09
242,29	153,60
242,50	102,91
242,72	143,36
242,93	147,97
243,15	126,46
243,36	161,79
243,58	132,09
243,79	139,77
244,01	92,16
244,22	130,05
244,44	133,12
244,65	162,81
244,87	138,24
245,08	105,98
245,29	143,87
245,51	118,78
245,72	176,13
245,94	139,77
246,15	177,15
246,37	132,09
246,58	108,54
246,80	173,57
247,01	116,22
247,23	124,93
247,44	131,07
247,66	154,62
247,87	130,05
248,09	117,25
248,30	128,00
248,51	111,61
248,73	84,48
248,94	146,94
249,16	144,89
249,37	145,92
249,59	92,16
249,80	175,61
250,02	162,30
250,23	124,41
250,45	169,98
250,66	92,16
250,87	120,83
251,09	119,81
251,30	119,81
251,52	121,34
251,73	68,09
251,95	163,84
252,16	118,27
252,38	134,14
252,59	102,40
252,80	129,53
253,02	177,66
253,23	175,10
253,45	160,77
253,66	111,10
253,88	145,41
254,09	114,17
254,30	163,84
254,52	123,90
254,73	146,43
254,95	141,31
255,16	187,90
255,38	120,32
255,59	91,13
255,80	145,41
256,02	92,67
256,23	72,70
256,45	190,46
256,66	137,73
256,88	157,18
257,09	131,07
257,30	155,13
257,52	141,82
257,73	116,73
257,95	127,49
258,16	136,19
258,38	100,86
258,59	93,18
258,80	101,37
259,02	114,17
259,23	200,70
259,45	156,16
259,66	175,61
259,87	176,64
260,09	124,93
260,30	123,39
260,52	125,95
260,73	124,93
260,94	165,89
261,16	57,86
261,37	108,54
261,59	121,34
261,80	121,34
262,01	156,67
262,23	113,66
262,44	143,36
262,66	87,55
262,87	112,13
263,08	111,61
263,30	166,91
263,51	111,10
263,73	136,19
263,94	143,36
264,15	177,66
264,37	132,61
264,58	167,93
264,80	151,55
265,01	195,58
265,22	79,87
265,44	110,59
265,65	94,72
265,86	90,62
266,08	159,74
266,29	118,27
266,51	107,52
266,72	136,70
266,93	152,06
267,15	147,97
267,36	112,64
267,58	116,22
267,79	129,02
268,00	154,11
268,22	178,17
268,43	110,08
268,64	111,61
268,86	161,79
269,07	89,09
269,28	134,65
269,50	123,39
269,71	143,87
269,93	104,96
270,14	66,56
270,35	109,05
270,57	151,04
270,78	133,12
270,99	100,86
271,21	159,74
271,42	105,98
271,63	146,94
271,85	91,65
272,06	172,03
272,28	128,00
272,49	121,85
272,70	128,00
272,92	138,75
273,13	140,29
273,34	98,30
273,56	128,00
273,77	154,62
273,98	108,03
274,20	131,07
274,41	124,41
274,62	87,55
274,84	148,48
275,05	95,74
275,26	132,61
275,48	82,94
275,69	140,80
275,90	150,01
276,12	134,14
276,33	124,41
276,54	99,33
276,76	118,27
276,97	135,17
277,18	151,55
277,40	170,49
277,61	92,67
277,82	151,04
278,04	97,79
278,25	108,54
278,46	116,22
278,68	133,63
278,89	157,69
279,10	160,25
279,32	134,65
279,53	56,83
279,74	128,51
279,96	109,05
280,17	166,40
280,38	155,13
280,60	152,57
280,81	156,67
281,02	138,75
281,24	147,45
281,45	116,73
281,66	141,31
281,88	154,11
282,09	123,39
282,30	169,47
282,52	137,21
282,73	162,81
282,94	68,61
283,15	107,52
283,37	141,31
283,58	162,30
283,79	96,77
284,01	151,55
284,22	181,25
284,43	148,48
284,65	114,17
284,86	118,27
285,07	104,45
285,28	163,33
285,50	158,21
285,71	134,65
285,92	104,96
286,14	119,81
286,35	149,50
286,56	121,85
286,77	141,31
286,99	124,41
287,20	144,89
287,41	147,45
287,63	143,36
287,84	163,84
288,05	209,92
288,27	94,72
288,48	106,49
288,69	146,43
288,90	130,05
289,12	111,61
289,33	153,09
289,54	138,24
289,75	140,80
289,97	119,29
290,18	136,70
290,39	153,09
290,61	124,41
290,82	116,73
291,03	150,01
291,24	160,77
291,46	101,37
291,67	113,66
291,88	137,21
292,09	145,92
292,31	117,25
292,52	168,45
292,73	151,04
292,95	131,07
293,16	118,78
293,37	100,35
293,58	171,52
293,80	128,00
294,01	136,19
294,22	127,49
294,43	154,62
294,65	139,26
294,86	137,21
295,07	155,65
295,28	153,09
295,50	152,06
295,71	156,16
295,92	183,29
296,13	118,27
296,35	209,92
296,56	148,48
296,77	188,41
296,98	158,72
297,20	184,32
297,41	165,37
297,62	152,57
297,83	113,15
298,05	101,37
298,26	195,58
298,47	179,71
298,68	141,82
298,89	117,25
299,11	194,05
299,32	147,97
299,53	161,79
299,74	120,32
299,96	140,80
300,17	89,60
300,38	155,13
300,59	156,67
300,81	167,93
301,02	139,77
301,23	150,53
301,44	124,93
301,65	118,27
301,87	112,64
302,08	161,79
302,29	168,96
302,50	111,10
302,72	99,84
302,93	171,01
303,14	205,31
303,35	144,38
303,56	152,57
303,78	144,38
303,99	94,21
304,20	136,19
304,41	70,14
304,62	218,11
304,84	113,66
305,05	178,17
305,26	179,71
305,47	163,84
305,68	198,65
305,90	131,07
306,11	128,51
306,32	122,88
306,53	136,70
306,74	172,03
306,96	136,19
307,17	179,71
307,38	158,21
307,59	199,68
307,80	134,65
308,02	155,13
308,23	148,99
308,44	132,61
308,65	161,28
308,86	119,29
309,08	156,16
309,29	187,39
309,50	177,15
309,71	112,64
309,92	197,12
310,13	186,37
310,35	106,49
310,56	138,75
310,77	145,41
310,98	150,53
311,19	135,68
311,41	79,36
311,62	128,51
311,83	116,73
312,04	172,03
312,25	160,77
312,46	210,94
312,68	123,90
312,89	187,39
313,10	210,43
313,31	179,71
313,52	216,57
313,73	101,37
313,95	127,49
314,16	109,05
314,37	92,16
314,58	139,77
314,79	125,44
315,00	149,50
315,22	160,77
315,43	162,30
315,64	150,01
315,85	175,10
316,06	160,25
316,27	137,21
316,48	166,40
316,70	168,45
316,91	227,84
317,12	146,43
317,33	171,01
317,54	209,40
317,75	200,19
317,97	134,14
318,18	166,91
318,39	200,19
318,60	158,72
318,81	232,44
319,02	241,15
319,23	190,97
319,45	224,76
319,66	196,61
319,87	174,08
320,08	190,46
320,29	220,16
320,50	240,64
320,71	167,42
320,92	171,01
321,14	124,93
321,35	238,59
321,56	205,31
321,77	193,02
321,98	252,41
322,19	275,45
322,40	252,92
322,61	228,35
322,83	238,59
323,04	261,12
323,25	267,26
323,46	278,01
323,67	224,25
323,88	281,60
324,09	327,16
324,30	268,28
324,52	327,16
324,73	314,36
324,94	276,99
325,15	331,26
325,36	300,54
325,57	264,19
325,78	329,72
325,99	350,20
326,20	336,89
326,41	334,33
326,63	411,13
326,84	355,32
327,05	351,74
327,26	420,86
327,47	459,77
327,68	407,55
327,89	453,11
328,10	460,28
328,31	436,73
328,52	398,84
328,74	480,76
328,95	444,41
329,16	526,33
329,37	495,61
329,58	475,13
329,79	531,45
330,00	509,43
330,21	530,42
330,42	615,41
330,63	614,39
330,84	610,81
331,06	557,05
331,27	676,85
331,48	672,25
331,69	643,57
331,90	647,16
332,11	690,17
332,32	703,48
332,53	753,14
332,74	733,17
332,95	838,13
333,16	751,09
333,37	812,02
333,58	756,21
333,79	795,64
334,01	870,90
334,22	800,24
334,43	834,55
334,64	816,63
334,85	810,48
335,06	880,63
335,27	803,32
335,48	949,75
335,69	976,37
335,90	1018,86
336,11	1049,07
336,32	1098,74
336,53	1149,93
336,74	1184,75
336,95	1163,25
337,16	1241,07
337,37	1226,73
337,59	1251,82
337,80	1365,48
338,01	1375,21
338,22	1389,55
338,43	1390,06
338,64	1427,95
338,85	1449,45
339,06	1422,83
339,27	1483,24
339,48	1475,05
339,69	1539,56
339,90	1602,02
340,11	1620,46
340,32	1639,40
340,53	1682,41
340,74	1732,07
340,95	1691,62
341,16	1666,02
341,37	1659,88
341,58	1667,05
341,79	1654,76
342,00	1545,19
342,21	1569,26
342,42	1652,20
342,63	1811,43
342,84	1884,13
343,05	1918,43
343,26	2015,20
343,48	2067,94
343,69	1992,67
343,90	1997,28
344,11	2112,48
344,32	2087,90
344,53	2146,27
344,74	2183,13
344,95	2150,37
345,16	2209,76
345,37	2214,37
345,58	2147,81
345,79	2231,26
346,00	2360,28
346,21	2264,03
346,42	2323,93
346,63	2300,89
346,84	2382,81
347,05	2444,76
347,26	2514,91
347,47	2605,02
347,68	2651,10
347,89	2788,82
348,10	2847,70
348,31	3014,10
348,52	2980,82
348,73	2868,69
348,94	2982,87
349,15	2821,59
349,36	2954,19
349,57	2929,11
349,78	2963,92
349,99	2943,44
350,20	2995,15
350,41	2991,06
350,62	3110,35
350,83	3204,05
351,04	3338,19
351,25	3425,74
351,45	3534,79
351,66	3535,31
351,87	3706,82
352,08	3766,73
352,29	3834,31
352,50	3824,07
352,71	3737,54
352,92	3791,30
353,13	3840,45
353,34	3785,16
353,55	3668,94
353,76	3635,66
353,97	3526,09
354,18	3501,51
354,39	3373,00
354,60	3373,52
354,81	3327,95
355,02	3260,37
355,23	3319,76
355,44	3255,25
355,65	3178,96
355,86	3144,66
356,07	3124,69
356,28	3151,31
356,49	3399,63
356,70	3518,92
356,91	3800,01
357,12	3949,00
357,32	4158,91
357,53	4274,62
357,74	4335,04
357,95	4233,15
358,16	4233,66
358,37	4032,45
358,58	4076,48
358,79	3979,20
359,00	4096,96
359,21	4096,96
359,42	4092,87
359,63	4225,47
359,84	4284,35
360,05	4472,25
360,26	4600,25
360,47	4708,28
360,68	4711,86
360,88	4613,56
361,09	4853,17
361,30	4607,93
361,51	4865,46
361,72	4948,40
361,93	4981,68
362,14	4841,40
362,35	5032,37
362,56	5102,51
362,77	5159,86
362,98	5397,42
363,19	5689,26
363,40	5795,75
363,60	5881,77
363,81	6047,14
364,02	5965,73
364,23	6039,46
364,44	5999,52
364,65	6049,70
364,86	6080,42
365,07	6094,75
365,28	5945,25
365,49	5904,81
365,70	5892,52
365,91	5764,01
366,11	5821,86
366,32	6019,49
366,53	6027,68
366,74	5964,20
366,95	6210,47
367,16	6270,37
367,37	6439,84
367,58	6300,58
367,79	6409,63
368,00	6255,52
368,20	6133,15
368,41	6008,23
368,62	6079,40
368,83	6183,84
369,04	6173,60
369,25	6204,83
369,46	6059,94
369,67	6008,23
369,88	5835,17
370,08	5713,32
370,29	5640,62
370,50	5665,71
370,71	5445,04
370,92	5226,93
371,13	5218,74
371,34	5077,94
371,55	5140,40
371,75	5080,50
371,96	5088,69
372,17	5023,16
372,38	5058,48
372,59	5075,38
372,80	5475,76
373,01	5430,70
373,22	5700,01
373,42	5879,21
373,63	5843,37
373,84	5705,13
374,05	5790,12
374,26	5850,53
374,47	6202,27
374,68	6130,08
374,88	6344,61
375,09	6573,47
375,30	6801,82
375,51	6969,24
375,72	7129,49
375,93	6834,58
376,14	6986,13
376,34	6729,11
376,55	6676,89
376,76	6257,57
376,97	6250,40
377,18	5991,33
377,39	5988,77
377,59	5894,05
377,80	6141,86
378,01	6159,27
378,22	6396,32
378,43	6273,95
378,64	6381,98
378,85	6088,10
379,05	6016,93
379,26	5667,24
379,47	5417,39
379,68	5139,38
379,89	4956,08
380,10	4651,45
380,30	4544,44
380,51	4461,50
380,72	4249,54
380,93	4242,88
381,14	4283,33
381,34	4265,41
381,55	4558,27
381,76	4765,62
381,97	5014,45
382,18	5353,90
382,39	5655,47
382,59	5694,89
382,80	5740,97
383,01	5819,30
383,22	5734,31
383,43	5736,36
383,63	5820,84
383,84	5709,74
384,05	5773,74
384,26	5887,40
384,47	5874,09
384,68	5875,11
384,88	5896,61
385,09	5932,45
385,30	5887,91
385,51	6008,23
385,72	5969,83
385,92	5953,96
386,13	5977,00
386,34	6097,31
386,55	6256,54
386,76	6421,92
386,96	6667,67
387,17	6936,98
387,38	7238,03
387,59	7308,69
387,79	7456,65
388,00	7327,12
388,21	7506,32
388,42	7780,75
388,63	7903,62
388,83	7825,80
389,04	8026,50
389,25	7862,66
389,46	7758,22
389,67	7397,26
389,87	7077,27
390,08	6648,22
390,29	6045,60
390,50	5543,34
390,70	5074,35
390,91	4602,81
391,12	4591,03
391,33	4609,98
391,53	4992,95
391,74	5437,36
391,95	6050,21
392,16	6535,58
392,37	7017,88
392,57	7336,34
392,78	7659,92
392,99	7908,23
393,20	7942,02
393,40	7591,82
393,61	7227,28
393,82	6703,00
394,03	6224,80
394,23	5726,63
394,44	5468,08
394,65	5430,70
394,86	5776,30
395,06	6165,92
395,27	7149,97
395,48	7569,80
395,69	8438,66
395,89	8860,02
396,10	9305,97
396,31	9719,15
396,52	10116,45
396,72	10223,46
396,93	10377,06
397,14	10338,66
397,35	10905,95
397,55	10829,66
397,76	10863,45
397,97	10960,73
398,18	11124,57
398,38	11059,03
398,59	11180,37
398,80	11177,30
399,00	11467,60
399,21	11573,58
399,42	11743,56
399,63	11504,98
399,83	11595,60
400,04	11838,80
400,25	11968,84
400,46	11634,00
400,66	11497,30
400,87	11411,79
401,08	11630,41
401,28	11419,99
401,49	11506,00
401,70	11415,89
401,91	11535,18
402,11	11484,50
402,32	11323,73
402,53	11391,31
402,73	11357,52
402,94	11296,08
403,15	11563,86
403,35	11210,07
403,56	11287,89
403,77	10902,36
403,98	11271,00
404,18	11099,48
404,39	11297,11
404,60	11227,48
404,80	11354,45
405,01	11312,98
405,22	11556,18
405,42	11385,68
405,63	11730,25
405,84	11724,62
406,05	12200,77
406,25	12042,57
406,46	12362,05
406,67	12251,46
406,87	12321,09
407,08	12116,81
407,29	11919,18
407,49	11414,87
407,70	11342,67
407,91	11066,71
408,11	11278,16
408,32	11371,35
408,53	11948,87
408,73	11954,51
408,94	12549,95
409,15	12662,59
409,35	12915,51
409,56	12620,61
409,77	12819,77
409,97	12587,84
410,18	12788,54
410,39	12501,31
410,59	12465,99
410,80	12259,65
411,01	12830,01
411,21	12579,65
411,42	12547,39
411,63	12605,25
411,83	12814,65
412,04	12664,13
412,25	12755,26
412,45	12506,43
412,66	12491,07
412,87	12531,01
413,07	12597,06
413,28	12388,67
413,49	12596,03
413,69	12764,48
413,90	12927,80
414,11	12670,27
414,31	12835,64
414,52	12649,28
414,72	12386,12
414,93	12354,88
415,14	12228,42
415,34	12158,28
415,55	12190,53
415,76	12336,45
415,96	12262,21
416,17	12165,45
416,38	12096,84
416,58	12221,25
416,79	12186,95
416,99	12030,28
417,20	12158,79
417,41	12075,85
417,61	12054,86
417,82	11961,67
418,03	12254,53
418,23	12330,31
418,44	12492,61
418,64	12587,84
418,85	12764,48
419,06	12515,65
419,26	12596,54
419,47	12398,40
419,67	12271,94
419,88	12077,38
420,09	12057,42
420,29	11644,75
420,50	11923,27
420,71	11770,19
420,91	11907,40
421,12	11794,76
421,32	12113,74
421,53	12026,70
421,74	12059,98
421,94	12077,90
422,15	12393,28
422,35	12238,15
422,56	12284,74
422,77	12033,35
422,97	11862,35
423,18	11970,38
423,38	12147,01
423,59	12029,26
423,80	12094,28
424,00	11823,44
424,21	12079,43
424,41	11692,37
424,62	11886,92
424,82	11435,35
425,03	11653,45
425,24	11699,53
425,44	11622,22
425,65	11750,22
425,85	12130,12
426,06	11727,18
426,26	11739,98
426,47	11405,65
426,68	11375,44
426,88	10961,24
427,09	10958,68
427,29	10595,17
427,50	10287,97
427,70	9847,15
427,91	9285,49
428,12	9351,03
428,32	9398,64
428,53	9447,28
428,73	9910,63
428,94	10646,88
429,14	11068,76
429,35	11920,20
429,56	12293,44
429,76	12375,36
429,97	12336,96
430,17	12278,60
430,38	12556,10
430,58	12724,54
430,79	12743,49
430,99	12656,96
431,20	12864,83
431,40	12298,56
431,61	12328,26
431,82	12378,44
432,02	12170,05
432,23	12606,27
432,43	12954,94
432,64	12693,82
432,84	13110,58
433,05	13314,36
433,25	13371,19
433,46	13848,88
433,66	13846,32
433,87	13868,84
434,07	13995,82
434,28	14166,31
434,49	14167,34
434,69	13916,46
434,90	13784,37
435,10	13662,51
435,31	13737,77
435,51	13176,63
435,72	13047,61
435,92	12614,46
436,13	12895,55
436,33	12623,68
436,54	12894,01
436,74	13036,35
436,95	13516,08
437,15	13274,93
437,36	13557,04
437,56	13405,49
437,77	13464,37
437,97	13588,27
438,18	13842,22
438,38	13962,03
438,59	14139,69
438,79	13978,41
439,00	14559,52
439,20	14419,24
439,41	14688,54
439,61	14747,42
439,82	14897,44
440,02	14757,66
440,23	14593,83
440,43	14816,54
440,64	14878,49
440,84	14754,08
441,05	14978,33
441,25	14811,93
441,46	14912,80
441,66	14844,19
441,87	15168,79
442,07	14823,20
442,28	15006,49
442,48	14509,86
442,69	14767,90
442,89	14868,77
443,10	14504,23
443,30	14133,03
443,51	14356,26
443,71	14249,25
443,92	14199,59
444,12	14444,32
444,32	14867,23
444,53	14731,04
444,73	15032,09
444,94	14841,12
445,14	15250,71
445,35	15262,49
445,55	15183,64
445,76	15090,97
445,96	15290,13
446,17	15342,87
446,37	15405,84
446,58	15372,05
446,78	15436,56
446,98	15132,95
447,19	15366,42
447,39	15529,75
447,60	15873,81
447,80	15794,96
448,01	15936,27
448,21	16174,86
448,42	16253,70
448,62	16110,35
448,82	16057,61
449,03	16037,64
449,23	15716,11
449,44	15866,64
449,64	15994,12
449,85	15522,58
450,05	15232,28
450,26	15110,94
450,46	14672,67
450,66	14923,55
450,87	14933,28
451,07	14918,43
451,28	15088,41
451,48	14859,55
451,69	15307,54
451,89	15221,02
452,09	15285,53
452,30	15313,17
452,50	15209,24
452,71	15434,00
452,91	15794,96
453,12	15739,66
453,32	15815,95
453,52	15854,35
453,73	15970,06
453,93	16114,95
454,14	15816,97
454,34	15939,34
454,54	16053,00
454,75	16147,21
454,95	16154,38
455,16	16096,01
455,36	15960,84
455,56	15549,71
455,77	16263,43
455,97	15749,39
456,18	15745,30
456,38	15739,15
456,58	15982,86
456,79	15892,75
456,99	16018,19
457,20	16022,80
457,40	15822,61
457,60	16057,61
457,81	16616,71
458,01	16146,19
458,22	16263,43
458,42	16673,54
458,62	16857,85
458,83	16631,04
459,03	16905,98
459,23	16870,65
459,44	17002,24
459,64	17010,94
459,85	17053,95
460,05	16872,70
460,25	16784,64
460,46	16672,00
460,66	16950,01
460,86	16978,17
461,07	17183,48
461,27	17039,61
461,48	16785,66
461,68	16908,54
461,88	16828,67
462,09	16978,68
462,29	16985,34
462,49	17040,12
462,70	17047,80
462,90	17469,17
463,10	17250,55
463,31	17349,88
463,51	17418,49
463,72	17851,12
463,92	17297,14
464,12	17152,25
464,33	17425,65
464,53	17384,69
464,73	17425,65
464,94	17789,68
465,14	17565,94
465,34	17578,74
465,55	17978,61
465,75	18147,05
465,95	17902,32
466,16	18313,96
466,36	18547,43
466,56	18081,52
466,77	18578,15
466,97	18952,93
467,17	18902,75
467,38	18457,32
467,58	18471,14
467,78	18496,74
467,99	18760,93
468,19	18798,82
468,39	19452,12
468,60	19095,77
468,80	19625,17
469,00	19717,33
469,21	20078,29
469,41	20466,89
469,61	20671,68
469,82	21129,41
470,02	21134,53
470,22	21026,50
470,42	21070,53
470,63	21284,03
470,83	21386,43
471,03	21444,79
471,24	21756,60
471,44	21766,84
471,64	22230,19
471,85	22235,82
472,05	23038,11
472,25	23317,15
472,46	22955,68
472,66	23360,67
472,86	23300,25
473,06	23632,02
473,27	23708,82
473,47	23719,57
473,67	23854,23
473,88	23647,90
474,08	24084,11
474,28	24096,91
474,48	24628,87
474,69	24605,83
474,89	25095,81
475,09	25459,84
475,30	25616,51
475,50	25976,44
475,70	26343,53
475,90	26682,47
476,11	26124,91
476,31	26096,75
476,51	26858,60
476,72	27371,61
476,92	27030,63
477,12	27127,39
477,32	27753,56
477,53	27909,72
477,73	28180,05
477,93	28594,25
478,13	28383,82
478,34	28264,02
478,54	29129,28
478,74	29074,50
478,94	29072,96
479,15	29203,01
479,35	29370,94
479,55	29516,35
479,75	30076,98
479,96	30132,28
480,16	29875,77
480,36	30010,42
480,57	30378,54
480,77	30389,81
480,97	30072,37
481,17	30123,57
481,37	30473,77
481,58	30258,74
481,78	30087,22
481,98	30405,68
482,18	30402,10
482,39	30251,57
482,59	29998,13
482,79	29418,56
482,99	28791,37
483,20	28182,61
483,40	27824,73
483,60	27122,79
483,80	27000,42
484,01	26820,20
484,21	27088,99
484,41	27326,56
484,61	27819,61
484,81	28624,97
485,02	29246,53
485,22	29509,69
485,42	29740,60
485,62	30049,33
485,83	30386,22
486,03	30539,82
486,23	30491,69
486,43	30660,14
486,63	30674,99
486,84	31107,62
487,04	31386,15
487,24	31899,16
487,44	31958,04
487,64	32157,21
487,85	32563,73
488,05	32491,02
488,25	32881,67
488,45	32474,13
488,65	32498,19
488,86	32053,78
489,06	32037,40
489,26	31490,08
489,46	31240,74
489,66	31381,03
489,87	31446,56
490,07	31280,16
490,27	31439,90
490,47	32110,61
490,67	31921,69
490,88	32307,73
491,08	32349,20
491,28	32495,12
491,48	32243,22
491,68	32544,27
491,88	32971,78
492,09	32914,44
492,29	33065,48
492,49	33182,21
492,69	33280,00
492,89	33256,45
493,09	32995,34
493,30	33082,38
493,50	32808,97
493,70	32804,36
493,90	33104,39
494,10	32879,11
494,30	33061,90
494,51	33087,50
494,71	33424,90
494,91	33035,27
495,11	32935,43
495,31	32481,30
495,51	32648,72
495,72	32372,24
495,92	31906,84
496,12	32055,83
496,32	31939,61
496,52	31906,84
496,72	32089,11
496,92	32246,80
497,13	32026,65
497,33	32125,46
497,53	32003,61
497,73	31747,61
497,93	31518,24
498,13	31477,28
498,33	31142,95
498,54	30888,49
498,74	30917,67
498,94	30724,14
499,14	30549,55
499,34	30690,35
499,54	30700,59
499,74	30567,98
499,94	31081,51
500,15	30989,35
500,35	31455,78
500,55	31041,57
500,75	31521,31
500,95	31125,03
501,15	31248,42
501,35	31022,63
501,55	30803,50
501,76	30857,77
501,96	30956,07
502,16	30855,72
502,36	31157,80
502,56	31464,99
502,76	31626,27
502,96	32088,60
503,16	32205,84
503,36	32364,05
503,57	32537,10
503,77	32797,20
503,97	32865,29
504,17	32800,27
504,37	32452,11
504,57	32567,31
504,77	32441,87
504,97	32460,82
505,17	32102,93
505,37	31983,64
505,57	32126,49
505,78	31808,03
505,98	32436,24
506,18	32289,30
506,38	32727,05
506,58	32845,83
506,78	33094,15
506,98	33027,08
507,18	33126,92
507,38	33166,34
507,58	33276,42
507,78	33181,70
507,98	33505,79
508,19	33416,19
508,39	33562,62
508,59	33872,89
508,79	33927,67
508,99	34163,19
509,19	34675,18
509,39	34434,55
509,59	34456,56
509,79	34472,95
509,99	34357,24
510,19	34522,61
510,39	34156,02
510,59	34173,94
510,79	34232,82
510,99	33930,75
511,19	33895,93
511,39	33989,11
511,60	33681,92
511,80	33666,05
512,00	33992,19
512,20	33915,90
512,40	34226,17
512,60	34476,02
512,80	34196,47
513,00	34881,00
513,20	34716,65
513,40	34527,73
513,60	34387,96
513,80	33644,54
514,00	33135,11
514,20	32286,74
514,40	32086,04
514,60	31697,95
514,80	31519,26
515,00	31307,81
515,20	31445,54
515,40	31787,03
515,60	31893,02
515,80	32004,12
516,00	32327,19
516,20	32225,81
516,40	32597,01
516,60	33196,55
516,80	33242,12
517,00	33500,67
517,20	34083,83
517,40	34444,79
517,60	34549,23
517,80	34570,22
518,00	34601,46
518,20	34840,56
518,40	35077,61
518,60	34961,90
518,80	35044,33
519,00	35041,77
519,20	35107,82
519,40	35191,27
519,60	35369,96
519,80	34774,00
520,00	34904,56
520,20	34564,08
520,40	34580,98
520,60	34385,91
520,80	34673,65
521,00	34563,06
521,20	34906,60
521,40	34949,61
521,60	35187,18
521,80	35285,48
522,00	35327,46
522,20	35320,81
522,40	35157,99
522,60	35055,08
522,80	35266,02
523,00	35030,51
523,20	34599,92
523,40	33964,03
523,60	33738,75
523,80	33221,64
524,00	32658,45
524,20	32326,16
524,40	31728,16
524,60	31654,43
524,80	31707,16
525,00	31534,11
525,20	32169,49
525,40	32321,04
525,60	32933,90
525,80	32923,15
526,00	33416,19
526,20	33591,30
526,40	33429,51
526,60	33824,25
526,79	34172,41
526,99	33764,86
527,19	34075,64
527,39	33558,02
527,59	34012,15
527,79	33746,94
527,99	33851,39
528,19	33690,62
528,39	34085,37
528,59	33907,19
528,79	33891,83
528,99	33745,41
529,19	33788,92
529,39	33268,23
529,59	32973,83
529,79	32770,06
529,98	32612,88
530,18	32057,37
530,38	32054,81
530,58	31604,77
530,78	31847,96
530,98	31965,21
531,18	31769,12
531,38	31926,81
531,58	32106,01
531,78	31971,35
531,98	32244,76
532,18	32274,45
532,37	32249,36
532,57	32345,11
532,77	32666,64
532,97	32840,71
533,17	32991,24
533,37	32758,80
533,57	32747,02
533,77	32848,91
533,97	32130,07
534,17	32171,54
534,37	32147,48
534,56	31717,40
534,76	31760,41
534,96	31559,20
535,16	31754,78
535,36	31653,92
535,56	31930,90
535,76	31823,90
535,96	31875,61
536,16	31648,80
536,35	31522,85
536,55	31592,99
536,75	31124,52
536,95	30864,43
537,15	30808,62
537,35	30564,40
537,55	30444,08
537,75	30173,75
537,94	30302,26
538,14	30120,50
538,34	30196,28
538,54	30082,10
538,74	30111,80
538,94	29972,53
539,14	30115,89
539,34	29976,12
539,53	30312,50
539,73	30159,41
539,93	30590,51
540,13	30194,23
540,33	30478,89
540,53	30188,08
540,73	30356,02
540,92	30113,33
541,12	30523,95
541,32	30144,05
541,52	30468,66
541,72	30340,66
541,92	30510,64
542,11	30405,68
542,31	30424,62
542,51	30540,33
542,71	30369,84
542,91	30173,24
543,11	30276,66
543,30	30380,59
543,50	30493,74
543,70	30193,72
543,90	30190,64
544,10	30207,54
544,30	30124,60
544,49	30176,31
544,69	29832,76
544,89	29914,17
545,09	29956,66
545,29	29697,59
545,49	29583,93
545,68	29815,35
545,88	29832,25
546,08	29807,16
546,28	29723,71
546,48	30019,64
546,67	30125,62
546,87	29934,14
547,07	30174,77
547,27	29838,39
547,47	30106,68
547,67	29851,19
547,86	29800,51
548,06	29785,15
548,26	29958,20
548,46	29668,41
548,66	29745,72
548,85	29581,88
549,05	29552,70
549,25	29858,36
549,45	29786,17
549,65	29715,00
549,84	29850,17
550,04	29454,40
550,24	29339,71
550,44	29552,19
550,63	29423,17
550,83	29256,77
551,03	29628,48
551,23	29250,63
551,43	29643,84
551,62	29680,70
551,82	29596,22
552,02	29473,34
552,22	29901,37
552,41	29786,68
552,61	29543,49
552,81	29685,82
553,01	29755,45
553,21	29516,35
553,40	29313,09
553,60	29114,44
553,80	29469,76
554,00	29118,53
554,19	28938,31
554,39	28803,66
554,59	28714,06
554,79	28527,69
554,98	28448,85
555,18	28670,03
555,38	28337,23
555,58	28322,38
555,77	28565,07
555,97	28215,38
556,17	28069,46
556,37	27587,16
556,56	27890,77
556,76	27519,58
556,96	27630,68
557,16	27207,78
557,35	27642,46
557,55	27291,74
557,75	27691,10
557,95	27552,35
558,14	27961,43
558,34	27787,86
558,54	27779,16
558,73	27854,93
558,93	27856,47
559,13	27812,95
559,33	27609,69
559,52	27720,28
559,72	27332,19
559,92	27438,69
560,12	27233,89
560,31	27702,36
560,51	27542,11
560,71	27457,63
560,90	27447,90
561,10	27370,08
561,30	27107,43
561,50	27202,14
561,69	27256,93
561,89	27228,26
562,09	27240,03
562,28	26899,56
562,48	27121,76
562,68	26855,53
562,87	26731,62
563,07	26286,19
563,27	26742,89
563,47	25962,10
563,66	26422,38
563,86	25894,00
564,06	26157,68
564,25	25950,32
564,45	26190,45
564,65	26288,75
564,84	26178,16
565,04	26181,23
565,24	26067,06
565,43	26008,69
565,63	25905,27
565,83	25714,30
566,02	25549,95
566,22	25523,83
566,42	25243,77
566,61	25104,00
566,81	24964,74
567,01	25123,46
567,20	25130,62
567,40	24837,76
567,60	24636,55
567,79	24671,37
567,99	24515,21
568,19	24247,95
568,38	24232,08
568,58	24058,00
568,78	24169,62
568,97	23999,12
569,17	24049,81
569,37	24179,86
569,56	24112,78
569,76	24530,06
569,96	24496,27
570,15	24366,22
570,35	24428,68
570,55	24479,88
570,74	24339,60
570,94	24385,68
571,13	24250,51
571,33	24012,43
571,53	24154,77
571,72	24179,34
571,92	23998,10
572,12	24036,50
572,31	23941,78
572,51	23660,69
572,71	23635,10
572,90	23443,61
573,10	23379,10
573,29	23309,98
573,49	23231,65
573,69	23296,67
573,88	23227,55
574,08	23327,39
574,28	23155,87
574,47	23212,70
574,67	23356,06
574,86	23143,58
575,06	23303,84
575,26	23025,31
575,45	22865,57
575,65	22751,91
575,84	22821,54
576,04	22737,06
576,24	22805,16
576,43	22730,92
576,63	22638,25
576,82	22619,30
577,02	22877,35
577,22	22793,38
577,41	22764,71
577,61	23083,68
577,80	22973,60
578,00	23068,32
578,20	23098,53
578,39	23232,67
578,59	23170,21
578,78	23082,66
578,98	23359,13
579,17	23130,27
579,37	23468,19
579,57	23368,86
579,76	23679,13
579,96	23486,11
580,15	23398,55
580,35	23421,08
580,55	23661,72
580,74	23537,82
580,94	23530,14
581,13	23455,90
581,33	23492,76
581,52	23491,74
581,72	23425,69
581,91	23255,71
582,11	23590,55
582,31	23212,19
582,50	23346,84
582,70	23138,46
582,89	23032,48
583,09	22796,45
583,28	22770,34
583,48	22778,02
583,67	22542,50
583,87	22570,15
584,07	22594,22
584,26	22434,99
584,46	22649,51
584,65	22706,85
584,85	22385,32
585,04	22292,14
585,24	22459,05
585,43	22142,13
585,63	21904,56
585,82	21771,96
586,02	21439,67
586,21	20836,55
586,41	20500,17
586,61	20069,07
586,80	19906,26
587,00	19526,36
587,19	19728,08
587,39	19524,31
587,58	19717,33
587,78	19920,59
587,97	20194,00
588,17	20370,12
588,36	20720,32
588,56	20522,69
588,75	20672,71
588,95	20625,61
589,14	20761,80
589,34	20609,73
589,53	20668,61
589,73	20672,71
589,92	20795,07
590,12	20736,20
590,31	20630,73
590,51	20995,26
590,70	20781,76
590,90	20886,21
591,09	20921,02
591,29	20667,59
591,48	20817,60
591,68	20721,35
591,87	20521,67
592,07	20420,30
592,26	20518,09
592,46	20260,04
592,65	20251,85
592,85	20230,35
593,04	20384,46
593,24	20350,15
593,43	20585,67
593,63	20486,86
593,82	20456,14
594,01	20568,77
594,21	20781,76
594,40	20533,45
594,60	20558,53
594,79	20577,99
594,99	20527,30
595,18	20415,18
595,38	20496,58
595,57	20316,87
595,77	20305,10
595,96	20298,44
596,16	20285,64
596,35	20226,76
596,54	20422,86
596,74	20350,67
596,93	20391,62
597,13	20357,83
597,32	20353,23
597,52	20241,10
597,71	20384,97
597,91	20106,96
598,10	20159,18
598,29	20230,35
598,49	20075,73
598,68	20064,97
598,88	20198,60
599,07	20020,43
599,27	20116,17
599,46	19938,00
599,65	19914,45
599,85	19841,23
600,04	19992,78
600,24	19926,22
600,43	20025,55
600,63	20230,86
600,82	20125,39
601,01	20205,77
601,21	20610,76
601,40	20164,81
601,60	20160,72
601,79	20430,54
601,99	20286,67
602,18	20236,49
602,37	20362,95
602,57	20179,66
602,76	20303,56
602,96	20029,13
603,15	20405,96
603,34	19924,18
603,54	20108,49
603,73	20153,55
603,93	20171,47
604,12	19987,15
604,31	20102,86
604,51	20001,49
604,70	20085,97
604,90	19962,06
605,09	20030,67
605,28	19861,20
605,48	19880,66
605,67	19936,98
605,86	19769,04
606,06	19746,00
606,25	19699,41
606,45	19838,16
606,64	19723,48
606,83	19553,49
607,03	19558,10
607,22	19477,21
607,41	19376,34
607,61	19367,64
607,80	19539,67
608,00	19213,53
608,19	19269,34
608,38	19230,43
608,58	19368,66
608,77	19285,72
608,96	19393,75
609,16	19185,37
609,35	19188,96
609,54	19011,29
609,74	19015,90
609,93	18978,01
610,12	18943,20
610,32	18961,63
610,51	18765,03
610,71	18642,15
610,90	18751,20
611,09	18559,72
611,29	18517,22
611,48	18448,61
611,67	18370,28
611,87	18620,64
612,06	18414,82
612,25	18498,79
612,45	18631,91
612,64	18600,68
612,83	18417,89
613,03	18428,13
613,22	18436,33
613,41	18228,97
613,61	18200,30
613,80	18238,19
613,99	18102,51
614,18	18030,83
614,38	17886,45
614,57	17975,02
614,76	18007,28
614,96	18224,87
615,15	18280,68
615,34	18303,21
615,54	18316,52
615,73	18509,54
615,92	18534,63
616,12	18409,19
616,31	18607,84
616,50	18395,37
616,69	18628,84
616,89	18505,45
617,08	18595,56
617,27	18687,71
617,47	18724,07
617,66	18615,52
617,85	18779,87
618,05	18887,90
618,24	18791,65
618,43	18904,29
618,62	19013,34
618,82	18814,69
619,01	18890,46
619,20	18929,89
619,40	18737,89
619,59	18957,53
619,78	19035,36
619,97	18802,91
620,17	18921,70
620,36	18905,31
620,55	18816,74
620,74	18724,58
620,94	18806,50
621,13	18749,67
621,32	18807,52
621,51	18627,81
621,71	18759,91
621,90	18585,83
622,09	18787,55
622,29	18421,48
622,48	18616,04
622,67	18471,14
622,86	18616,04
623,06	18444,52
623,25	18415,34
623,44	18230,51
623,63	18341,61
623,83	18528,49
624,02	18684,13
624,21	18505,45
624,40	18489,06
624,59	18289,90
624,79	18303,72
624,98	18116,84
625,17	17987,31
625,36	17764,59
625,56	17684,72
625,75	17438,45
625,94	17507,57
626,13	17380,09
626,33	17388,79
626,52	17284,34
626,71	17517,30
626,90	17383,16
627,09	17310,97
627,29	17125,11
627,48	17459,45
627,67	17400,57
627,86	17369,85
628,05	17404,66
628,25	17525,49
628,44	17327,35
628,63	17312,50
628,82	17320,70
629,02	17170,17
629,21	17129,72
629,40	17182,46
629,59	17230,59
629,78	17271,54
629,98	17228,03
630,17	17223,42
630,36	17259,77
630,55	17304,82
630,74	17140,47
630,93	17201,40
631,13	17135,35
631,32	17175,80
631,51	17226,49
631,70	17302,78
631,89	17107,71
632,09	16864,51
632,28	17228,54
632,47	17059,58
632,66	17000,70
632,85	17106,68
633,04	16969,98
633,24	17054,46
633,43	16971,01
633,62	16969,47
633,81	16920,32
634,00	16946,94
634,19	16833,79
634,39	16890,62
634,58	16932,61
634,77	16837,89
634,96	16712,96
635,15	16922,88
635,34	16770,82
635,54	16968,45
635,73	16925,95
635,92	16958,21
636,11	16897,28
636,30	16766,21
636,49	16837,89
636,68	16540,93
636,88	16579,33
637,07	16457,48
637,26	16449,80
637,45	16222,98
637,64	16309,00
637,83	16168,71
638,02	16259,85
638,21	16245,51
638,41	16254,22
638,60	16187,14
638,79	16025,87
638,98	16145,67
639,17	16114,44
639,36	16006,92
639,55	15953,16
639,74	15907,60
639,94	16061,71
640,13	15936,27
640,32	16090,38
640,51	15921,42
640,70	16199,94
640,89	15935,24
641,08	15800,59
641,27	15851,28
641,46	15824,65
641,66	15945,48
641,85	15918,86
642,04	15672,08
642,23	15688,98
642,42	15707,92
642,61	15700,24
642,80	15544,08
642,99	15478,04
643,18	15471,89
643,37	15386,90
643,56	15213,85
643,76	15177,50
643,95	15213,34
644,14	15126,81
644,33	15178,01
644,52	15073,05
644,71	14804,77
644,90	14764,32
645,09	14721,82
645,28	14556,96
645,47	14507,81
645,66	14552,35
645,85	14431,01
646,04	14438,18
646,24	14348,07
646,43	14282,53
646,62	14261,03
646,81	14154,02
647,00	14184,74
647,19	14099,75
647,38	14099,24
647,57	14139,18
647,76	14233,89
647,95	14367,52
648,14	14277,93
648,33	14230,82
648,52	14368,55
648,71	14403,88
648,90	14376,23
649,09	14286,63
649,28	14204,71
649,47	14208,81
649,66	14126,89
649,85	14235,43
650,05	14269,73
650,24	14196,01
650,43	14240,04
650,62	14179,62
650,81	14381,86
651,00	14239,01
651,19	14228,26
651,38	14198,57
651,57	14184,74
651,76	14222,63
651,95	14122,79
652,14	14035,24
652,33	14004,01
652,52	13824,81
652,71	13628,72
652,90	13481,78
653,09	13142,33
653,28	12884,28
653,47	12638,02
653,66	12279,62
653,85	12257,60
654,04	12039,50
654,23	12050,76
654,42	12234,57
654,61	12317,00
654,80	12376,39
654,99	12547,90
655,18	12691,77
655,37	12938,04
655,56	13082,94
655,75	13217,59
655,94	13393,72
656,13	13464,37
656,32	13527,35
656,51	13442,87
656,70	13601,07
656,89	13523,25
657,08	13525,81
657,27	13540,66
657,46	13556,02
657,65	13604,14
657,84	13881,64
658,03	13700,40
658,22	13584,69
658,40	13691,18
658,59	13612,85
658,78	13627,70
658,97	13720,88
659,16	13848,88
659,35	13625,14
659,54	13772,08
659,73	13795,63
659,92	13822,77
660,11	13738,29
660,30	13668,66
660,49	13720,88
660,68	13591,86
660,87	13582,64
661,06	13584,18
661,25	13518,64
661,44	13479,73
661,63	13354,29
661,82	13455,67
662,01	13334,84
662,19	13362,48
662,38	13403,44
662,57	13497,65
662,76	13328,18
662,95	13370,68
663,14	13463,35
663,33	13359,41
663,52	13341,49
663,71	13287,22
663,90	13253,43
664,09	13319,99
664,28	13119,80
664,47	13258,04
664,65	13203,77
664,84	13221,69
665,03	13191,99
665,22	13146,94
665,41	13157,18
665,60	13168,95
665,79	13181,75
665,98	13055,80
666,17	13183,29
666,36	13049,66
666,55	13188,41
666,73	13089,08
666,92	13164,34
667,11	13231,93
667,30	12995,39
667,49	13011,77
667,68	13004,60
667,87	13098,81
668,06	12908,86
668,25	13040,44
668,43	12864,32
668,62	12955,96
668,81	12797,24
669,00	12765,50
669,19	12664,13
669,38	12775,23
669,57	12661,05
669,76	12613,44
669,94	12735,81
670,13	12671,29
670,32	12462,91
670,51	12620,61
670,70	12696,89
670,89	12718,40
671,08	12688,70
671,26	12663,10
671,45	12603,20
671,64	12507,97
671,83	12600,13
672,02	12514,11
672,21	12646,21
672,40	12482,37
672,58	12547,90
672,77	12586,82
672,96	12334,92
673,15	12521,28
673,34	12449,60
673,53	12321,60
673,71	12318,53
673,90	12443,46
674,09	12370,24
674,28	12311,88
674,47	12323,14
674,66	12361,03
674,84	12205,38
675,03	12121,93
675,22	12193,61
675,41	12175,69
675,60	12098,89
675,79	12089,67
675,97	12270,92
676,16	12211,01
676,35	12040,01
676,54	12194,63
676,73	12131,65
676,91	11983,69
677,10	12037,96
677,29	12073,80
677,48	12115,27
677,67	12049,22
677,86	11922,76
678,04	11871,05
678,23	11819,85
678,42	11788,62
678,61	11942,73
678,80	11707,73
678,98	11753,80
679,17	11822,41
679,36	11801,42
679,55	11753,80
679,73	11779,92
679,92	11692,37
680,11	11652,43
680,30	11649,36
680,49	11528,02
680,67	11545,42
680,86	11567,44
681,05	11478,86
681,24	11585,36
681,42	11449,68
681,61	11449,68
681,80	11234,13
681,99	11321,17
682,18	11253,08
682,36	11213,65
682,55	11266,39
682,74	11188,05
682,93	11256,66
683,11	11210,58
683,30	11074,39
683,49	10913,63
683,68	10897,24
683,86	10400,10
684,05	9954,15
684,24	9487,22
684,43	8923,51
684,61	8461,18
684,80	8031,11
684,99	7861,13
685,18	7845,26
685,36	7844,74
685,55	7842,70
685,74	7975,30
685,93	7985,54
686,11	8092,55
686,30	7969,67
686,49	7976,33
686,67	8036,23
686,86	8042,89
687,05	8189,83
687,24	8145,80
687,42	8177,03
687,61	8269,70
687,80	8483,20
687,99	8534,91
688,17	8544,13
688,36	8720,76
688,55	8796,03
688,73	8957,30
688,92	9026,42
689,11	9001,33
689,29	9140,60
689,48	9248,63
689,67	9141,62
689,86	9199,48
690,04	9151,35
690,23	9313,65
690,42	9301,87
690,60	9209,20
690,79	9157,49
690,98	9222,52
691,16	9128,31
691,35	9155,96
691,54	9142,64
691,72	9032,57
691,91	9096,57
692,10	8996,21
692,29	9177,97
692,47	9020,28
692,66	9168,76
692,85	9063,29
693,03	9090,42
693,22	9135,48
693,41	9143,67
693,59	9232,76
693,78	9266,55
693,97	9320,82
694,15	9316,72
694,34	9469,81
694,53	9445,23
694,71	9421,17
694,90	9441,14
695,09	9530,22
695,27	9523,57
695,46	9535,34
695,64	9435,50
695,83	9320,82
696,02	9164,66
696,20	9213,30
696,39	9039,22
696,58	9067,89
696,76	9044,85
696,95	9089,91
697,14	8951,67
697,32	8873,85
697,51	8839,55
697,70	8808,83
697,88	8794,49
698,07	8723,83
698,25	8836,47
698,44	8650,62
698,63	8758,65
698,81	8516,48
699,00	8576,38
699,19	8621,44
699,37	8727,93
699,56	8535,42
699,74	8467,84
699,93	8517,50
700,12	8505,73
700,30	8479,61
700,49	8493,95
700,67	8640,38
700,86	8543,10
701,05	8665,98
701,23	8602,49
701,42	8584,06
701,60	8656,76
701,79	8586,11
701,98	8636,80
702,16	8672,12
702,35	8738,68
702,53	8635,77
702,72	8704,38
702,91	8568,70
703,09	8591,23
703,28	8535,42
703,46	8620,41
703,65	8670,08
703,83	8483,71
704,02	8526,72
704,21	8496,51
704,39	8568,19
704,58	8470,91
704,76	8498,56
704,95	8415,10
705,13	8502,14
705,32	8544,13
705,51	8465,79
705,69	8499,07
705,88	8383,36
706,06	8483,20
706,25	8329,60
706,43	8356,22
706,62	8357,76
706,80	8422,27
706,99	8456,06
707,18	8276,87
707,36	8444,80
707,55	8336,26
707,73	8242,05
707,92	8214,40
708,10	8305,03
708,29	8284,55
708,47	8244,61
708,66	8270,72
708,84	8211,33
709,03	8099,20
709,21	8110,98
709,40	8119,17
709,59	8176,00
709,77	8099,72
709,96	8065,41
710,14	8060,29
710,33	8118,15
710,51	8006,02
710,70	7921,54
710,88	7971,72
711,07	7932,29
711,25	7844,74
711,44	7954,82
711,62	7844,74
711,81	7850,38
711,99	7819,14
712,18	7844,23
712,36	7750,03
712,55	7654,80
712,73	7810,95
712,92	7611,79
713,10	7564,17
713,29	7468,94
713,47	7457,68
713,66	7343,50
713,84	7191,95
714,03	7108,50
714,21	6898,58
714,40	6749,08
714,58	6499,23
714,77	6373,79
714,95	6164,90
715,14	6112,16
715,32	5911,97
715,51	5818,79
715,69	5665,19
715,87	5627,82
716,06	5482,41
716,24	5451,69
716,43	5349,29
716,61	5344,69
716,80	5151,15
716,98	5263,28
717,17	5155,76
717,35	5141,43
717,54	5084,59
717,72	4993,97
717,91	5040,56
718,09	5112,24
718,27	5258,67
718,46	5321,13
718,64	5389,23
718,83	5613,99
719,01	5682,60
719,20	5974,95
719,38	5982,12
719,57	5999,01
719,75	6191,01
719,93	6088,10
720,12	6088,61
720,30	6021,03
720,49	5999,52
720,67	5868,97
720,86	5817,26
721,04	5704,10
721,22	5584,81
721,41	5524,91
721,59	5483,44
721,78	5270,96
721,96	5339,05
722,14	5328,81
722,33	5236,14
722,51	5273,01
722,70	5211,57
722,88	5253,04
723,06	5288,37
723,25	5294,51
723,43	5121,97
723,62	5301,68
723,80	5235,12
723,98	5289,90
724,17	5255,09
724,35	5292,98
724,54	5265,33
724,72	5182,38
724,90	5166,00
725,09	5158,83
725,27	5073,33
725,46	5180,34
725,64	5135,28
725,82	5177,78
726,01	5121,46
726,19	5208,50
726,38	5226,42
726,56	5131,70
726,74	5157,30
726,93	5181,87
727,11	5225,90
727,29	5201,33
727,48	5092,27
727,66	5099,44
727,84	5116,85
728,03	5180,85
728,21	5161,39
728,40	5169,07
728,58	5134,77
728,76	5105,07
728,95	5163,95
729,13	5188,02
729,31	5207,98
729,50	5267,38
729,68	5438,89
729,86	5508,01
730,05	5436,85
730,23	5514,67
730,41	5585,83
730,60	5571,50
730,78	5615,02
730,96	5679,53
731,15	5703,08
731,33	5653,93
731,51	5807,02
731,70	5881,25
731,88	5802,92
732,06	5911,46
732,25	5825,45
732,43	5821,35
732,61	5817,26
732,80	5744,04
732,98	5794,73
733,16	5770,66
733,34	5711,78
733,53	5641,64
733,71	5652,91
733,89	5689,26
734,08	5647,79
734,26	5718,95
734,44	5663,66
734,63	5725,61
734,81	5614,51
734,99	5657,00
735,18	5699,50
735,36	5715,88
735,54	5717,42
735,72	5720,49
735,91	5615,53
736,09	5560,75
736,27	5642,67
736,46	5604,27
736,64	5527,47
736,82	5580,20
737,00	5635,50
737,19	5613,48
737,37	5515,69
737,55	5535,15
737,73	5540,27
737,92	5566,38
738,10	5565,36
738,28	5630,38
738,47	5669,29
738,65	5635,50
738,83	5612,46
739,01	5566,89
739,20	5477,80
739,38	5561,26
739,56	5563,82
739,74	5543,34
739,93	5485,48
740,11	5509,55
740,29	5492,65
740,47	5577,13
740,66	5510,57
740,84	5647,27
741,02	5471,66
741,20	5602,73
741,38	5500,33
741,57	5579,69
741,75	5415,85
741,93	5534,12
742,11	5477,29
742,30	5446,06
742,48	5468,08
742,66	5437,36
742,84	5411,76
743,03	5466,54
743,21	5463,47
743,39	5404,08
743,57	5467,56
743,75	5337,52
743,94	5382,57
744,12	5439,92
744,30	5425,58
744,48	5429,68
744,66	5426,09
744,85	5373,87
745,03	5322,16
745,21	5393,84
745,39	5412,78
745,57	5390,77
745,76	5278,13
745,94	5380,53
746,12	5413,29
746,30	5355,95
746,48	5321,13
746,67	5401,52
746,85	5269,42
747,03	5422,00
747,21	5339,05
747,39	5354,41
747,57	5323,69
747,76	5447,60
747,94	5318,06
748,12	5391,28
748,30	5315,50
748,48	5303,73
748,67	5471,66
748,85	5383,60
749,03	5441,45
749,21	5490,09
749,39	5497,77
749,57	5512,11
749,75	5522,86
749,94	5469,61
750,12	5506,48
750,30	5458,35
750,48	5471,66
750,66	5506,48
750,84	5500,84
751,03	5575,08
751,21	5594,54
751,39	5647,27
751,57	5589,42
751,75	5625,77
751,93	5681,58
752,11	5651,88
752,29	5656,49
752,48	5641,64
752,66	5620,14
752,84	5705,13
753,02	5675,43
753,20	5714,86
753,38	5691,31
753,56	5749,67
753,74	5673,39
753,93	5740,97
754,11	5597,61
754,29	5767,08
754,47	5727,66
754,65	5707,69
754,83	5710,76
755,01	5820,33
755,19	5706,66
755,37	5742,50
755,56	5742,50
755,74	5688,23
755,92	5686,19
756,10	5624,23
756,28	5461,93
756,46	5267,89
756,64	4935,60
756,82	4531,13
757,00	4079,04
757,18	3619,27
757,36	3073,49
757,55	2634,71
757,73	2306,52
757,91	1955,81
758,09	1673,70
758,27	1483,24
758,45	1346,03
758,63	1347,05
758,81	1333,23
758,99	1550,31
759,17	1567,72
759,35	1641,96
759,53	1786,85
759,71	1630,70
759,89	1692,13
760,08	1651,17
760,26	1541,10
760,44	1487,85
760,62	1443,82
760,80	1382,89
760,98	1474,03
761,16	1423,34
761,34	1482,22
761,52	1586,15
761,70	1653,73
761,88	1735,14
762,06	1706,98
762,24	1915,87
762,42	2033,12
762,60	2125,28
762,78	2320,35
762,96	2479,58
763,14	2566,62
763,32	2636,25
763,50	2738,13
763,68	2846,16
763,86	3048,40
764,04	3083,73
764,22	3298,25
764,40	3431,88
764,58	3527,11
764,76	3641,80
764,94	3666,89
765,12	3797,45
765,30	3891,14
765,48	3893,19
765,66	4017,09
765,84	4089,79
766,02	4033,99
766,20	4213,18
766,38	4085,19
766,56	4224,96
766,74	4228,03
766,92	4136,38
767,10	4263,36
767,28	4174,78
767,46	4251,07
767,64	4165,57
767,82	4230,08
768,00	4201,92
768,18	4224,96
768,36	4302,27
768,54	4294,08
768,72	4168,64
768,90	4120,51
769,08	4168,64
769,26	4120,51
769,44	4189,12
769,62	4069,31
769,80	4152,77
769,98	4089,79
770,16	4029,38
770,34	4025,28
770,52	4041,67
770,70	4010,95
770,88	3989,96
771,06	3972,04
771,24	3936,20
771,42	3913,16
771,60	3894,72
771,78	3910,08
771,96	3903,94
772,13	3811,27
772,31	3875,27
772,49	3849,67
772,67	3786,18
772,85	3844,04
773,03	3737,54
773,21	3769,29
773,39	3771,85
773,57	3717,58
773,75	3702,22
773,93	3672,01
774,11	3750,34
774,29	3713,48
774,47	3664,33
774,64	3640,78
774,82	3575,24
775,00	3611,08
775,18	3561,42
775,36	3453,90
775,54	3505,61
775,72	3444,68
775,90	3477,96
776,08	3447,24
776,26	3448,78
776,43	3468,75
776,61	3402,70
776,79	3407,82
776,97	3481,55
777,15	3449,29
777,33	3359,18
777,51	3319,25
777,69	3316,17
777,87	3263,44
778,04	3251,66
778,22	3300,81
778,40	3261,90
778,58	3269,58
778,76	3238,86
778,94	3229,65
779,12	3237,33
779,30	3206,10
779,47	3203,54
779,65	3150,80
779,83	3216,85
780,01	3168,21
780,19	3091,92
780,37	3109,84
780,55	3040,21
780,73	3067,35
780,90	2994,13
781,08	2994,64
781,26	3131,34
781,44	3038,16
781,62	2970,07
781,80	2935,25
781,97	2944,98
782,15	2976,72
782,33	2991,06
782,51	2871,25
782,69	2933,72
782,87	2918,36
783,04	2892,76
783,22	2913,24
783,40	2817,49
783,58	2802,65
783,76	2828,76
783,94	2813,40
784,11	2808,79
784,29	2804,18
784,47	2766,81
784,65	2790,87
784,83	2804,18
785,01	2712,53
785,18	2648,02
785,36	2696,66
785,54	2650,58
785,72	2659,29
785,90	2624,47
786,07	2595,80
786,25	2564,06
786,43	2536,41
786,61	2510,30
786,79	2509,27
786,96	2507,23
787,14	2444,25
787,32	2559,96
787,50	2493,91
787,67	2469,85
787,85	2380,76
788,03	2469,34
788,21	2370,01
788,39	2403,80
788,56	2432,99
788,74	2381,28
788,92	2356,19
789,10	2324,96
789,27	2329,56
789,45	2358,75
789,63	2371,04
789,81	2355,16
789,99	2310,62
790,16	2251,23
790,34	2293,73
790,52	2321,88
790,70	2243,55
790,87	2256,35
791,05	2289,12
791,23	2187,23
791,41	2192,35
791,58	2245,60
791,76	2192,86
791,94	2189,28
792,12	2213,85
792,29	2249,18
792,47	2176,99
792,65	2165,73
792,82	2161,63
793,00	2208,22
793,18	2067,94
793,36	2136,54
793,53	2093,02
793,71	2079,71
793,89	2085,34
794,07	2057,70
794,24	2053,60
794,42	2073,06
794,60	2027,49
794,77	1992,67
794,95	2067,42
795,13	2107,87
795,31	2062,30
795,48	2094,05
795,66	2016,23
795,84	2008,55
796,01	1973,73
796,19	2007,01
796,37	2047,97
796,54	1988,58
796,72	1974,75
796,90	1898,98
797,08	1888,74
797,25	1902,56
797,43	1927,14
797,61	1910,24
797,78	1871,84
797,96	1877,99
798,14	1851,88
798,31	1808,36
798,49	1831,40
798,67	1832,93
798,84	1805,28
799,02	1850,85
799,20	1806,31
799,37	1788,90
799,55	1855,46
799,73	1804,26
799,90	1829,35
800,08	1767,40
800,26	1809,89
800,43	1781,22
800,61	1804,77
800,79	1767,40
800,96	1681,38
801,14	1801,19
801,32	1738,73
801,49	1726,44
801,67	1713,64
801,84	1734,63
802,02	1615,34
802,20	1675,75
802,37	1674,73
802,55	1682,92
802,73	1722,34
802,90	1657,83
803,08	1678,31
803,26	1626,60
803,43	1742,31
803,61	1720,81
803,78	1629,67
803,96	1712,61
804,14	1710,57
804,31	1693,16
804,49	1591,27
804,67	1566,18
804,84	1687,53
805,02	1600,49
805,19	1598,44
805,37	1666,53
805,55	1609,70
805,72	1585,64
805,90	1598,44
806,07	1584,10
806,25	1514,98
806,43	1534,44
806,60	1512,42
806,78	1531,88
806,95	1524,20
807,13	1551,85
807,30	1462,25
807,48	1528,30
807,66	1485,29
807,83	1479,15
808,01	1421,29
808,18	1468,91
808,36	1522,15
808,54	1446,89
808,71	1441,26
808,89	1379,82
809,06	1403,37
809,24	1421,80
809,41	1407,98
809,59	1363,44
809,76	1402,86
809,94	1314,28
810,12	1324,01
810,29	1342,96
810,47	1305,58
810,64	1333,23
810,82	1245,68
810,99	1248,75
811,17	1292,27
811,34	1170,93
811,52	1193,97
811,69	1125,36
811,87	1185,26
812,05	1164,27
812,22	1209,33
812,40	1118,70
812,57	1103,34
812,75	1080,82
812,92	1048,05
813,10	1099,76
813,27	1037,30
813,45	1063,92
813,62	999,41
813,80	1033,71
813,97	994,29
814,15	1052,66
814,32	1019,89
814,50	975,35
814,67	1021,94
814,85	1015,79
815,02	980,47
815,20	983,54
815,37	982,51
815,55	920,05
815,72	980,47
815,90	942,58
816,07	973,81
816,25	951,79
816,42	932,85
816,60	910,32
816,77	947,19
816,95	931,31
817,12	936,95
817,30	986,61
817,47	941,55
817,65	960,50
817,82	976,88
818,00	957,94
818,17	1029,62
818,35	987,12
818,52	1042,93
818,70	985,58
818,87	1033,20
819,04	976,88
819,22	999,92
819,39	1048,56
819,57	998,38
819,74	930,80
819,92	942,58
820,09	905,20
820,27	874,48
820,44	824,31
820,62	781,30
820,79	820,72
820,96	813,04
821,14	859,12
821,31	882,67
821,49	863,22
821,66	904,18
821,84	903,15
822,01	942,07
822,18	902,13
822,36	884,21
822,53	987,12
822,71	1036,27
822,88	912,37
823,06	925,68
823,23	904,69
823,40	887,28
823,58	952,31
823,75	924,15
823,93	948,21
824,10	881,14
824,27	930,80
824,45	915,44
824,62	913,39
824,80	903,67
824,97	901,11
825,14	870,39
825,32	870,90
825,49	898,03
825,67	842,23
825,84	856,05
826,01	899,06
826,19	865,27
826,36	883,19
826,54	889,84
826,71	855,03
826,88	854,51
827,06	825,84
827,23	829,94
827,40	871,41
827,58	874,99
827,75	872,95
827,93	879,09
828,10	842,74
828,27	801,27
828,45	888,31
828,62	829,94
828,79	912,37
828,97	846,84
829,14	821,24
829,31	821,24
829,49	805,36
829,66	792,05
829,83	815,60
830,01	825,84
830,18	862,71
830,35	864,75
830,53	816,63
830,70	778,74
830,87	830,45
831,05	790,52
831,22	835,57
831,39	805,36
831,57	774,13
831,74	766,96
831,91	813,56
832,09	786,42
832,26	814,58
832,43	775,67
832,61	786,93
832,78	799,22
832,95	848,37
833,13	776,18
833,30	796,15
833,47	794,61
833,65	784,37
833,82	741,88
833,99	779,76
834,16	733,68
834,34	827,38
834,51	774,13
834,68	843,25
834,86	808,95
835,03	798,71
835,20	822,26
835,38	769,01
835,55	813,04
835,72	800,76
835,89	759,28
836,07	794,10
836,24	843,76
836,41	773,62
836,58	806,90
836,76	806,90
836,93	785,91
837,10	782,32
837,28	840,18
837,45	784,88
837,62	813,04
837,79	785,91
837,97	725,49
838,14	790,52
838,31	788,47
838,48	789,49
838,66	765,94
838,83	720,88
839,00	689,65
839,17	716,28
839,35	808,95
839,52	742,90
839,69	739,83
839,86	731,64
840,04	733,17
840,21	721,91
840,38	750,58
840,55	766,45
840,72	747,00
840,90	700,41
841,07	762,87
841,24	713,72
841,41	739,32
841,59	737,27
841,76	718,84
841,93	744,95
842,10	729,08
842,27	680,95
842,45	697,85
842,62	764,92
842,79	699,89
842,96	753,14
843,13	671,22
843,31	694,77
843,48	661,49
843,65	746,48
843,82	734,20
843,99	695,29
844,17	630,26
844,34	643,06
844,51	670,71
844,68	698,87
844,85	651,77
845,02	728,05
845,20	699,89
845,37	701,94
845,54	676,34
845,71	698,87
845,88	688,12
846,06	697,33
846,23	592,37
846,40	640,50
846,57	601,08
846,74	713,21
846,91	666,10
847,09	600,05
847,26	614,39
847,43	646,13
847,60	636,41
847,77	629,24
847,94	573,43
848,11	610,29
848,29	608,76
848,46	590,33
848,63	619,00
848,80	580,60
848,97	593,91
849,14	596,47
849,31	549,37
849,49	635,38
849,66	568,82
849,83	561,66
850,00	576,50
850,17	605,69
850,34	576,50
850,51	582,65
850,68	596,98
850,85	575,99
851,03	543,22
851,20	602,10
851,37	579,06
851,54	594,42
851,71	576,50
851,88	547,32
852,05	486,39
852,22	565,24
852,39	452,09
852,57	531,45
852,74	497,14
852,91	573,43
853,08	540,15
853,25	549,37
853,42	526,84
853,59	537,59
853,76	478,71
853,93	540,66
854,10	550,90
854,27	545,78
854,44	558,07
854,62	547,32
854,79	547,83
854,96	494,58
855,13	518,65
855,30	449,02
855,47	512,50
855,64	507,38
855,81	451,07
855,98	528,38
856,15	566,26
856,32	575,99
856,49	527,86
856,66	522,23
856,83	531,96
857,00	507,90
857,17	496,12
857,34	442,87
857,51	490,49
857,69	539,64
857,86	493,56
858,03	471,54
858,20	499,19
858,37	495,61
858,54	496,12
858,71	486,39
858,88	467,96
859,05	486,90
859,22	502,78
859,39	459,26
859,56	533,50
859,73	450,04
859,90	481,27
860,07	498,68
860,24	455,67
860,41	504,31
860,58	440,31
860,75	456,70
860,92	523,77
861,09	455,67
861,26	513,02
861,43	491,00
861,60	428,03
861,77	370,17
861,94	437,24
862,11	497,14
862,28	430,07
862,45	439,80
862,62	438,27
862,79	467,45
862,96	480,25
863,13	436,22
863,30	498,68
863,47	414,20
863,64	425,98
863,81	437,24
863,98	462,84
864,15	394,75
864,32	388,60
864,48	400,38
864,65	400,89
864,82	430,07
864,99	423,42
865,16	398,33
865,33	415,74
865,50	393,21
865,67	372,22
865,84	457,21
866,01	399,35
866,18	416,76
866,35	428,03
866,52	401,91
866,69	397,82
866,86	411,13
867,03	387,07
867,20	385,53
867,37	403,45
867,53	384,51
867,70	358,39
867,87	437,24
868,04	344,06
868,21	347,13
868,38	382,46
868,55	412,67
868,72	334,84
868,89	385,53
869,06	390,65
869,23	353,79
869,40	394,23
869,56	371,19
869,73	444,92
869,90	382,97
870,07	385,02
870,24	338,43
870,41	367,61
870,58	326,65
870,75	384,51
870,92	316,92
871,08	371,71
871,25	333,31
871,42	340,47
871,59	365,05
871,76	356,35
871,93	323,07
872,10	373,75
872,27	326,65
872,43	397,31
872,60	309,76
872,77	282,11
872,94	322,56
873,11	303,61
873,28	356,86
873,45	349,18
873,62	316,92
873,78	354,30
873,95	358,91
874,12	333,31
874,29	285,18
874,46	320,51
874,63	379,39
874,79	247,29
874,96	346,62
875,13	310,27
875,30	313,34
875,47	382,97
875,64	272,89
875,80	307,71
875,97	279,04
876,14	289,79
876,31	331,77
876,48	363,51
876,65	288,25
876,81	338,94
876,98	291,32
877,15	331,26
877,32	339,45
877,49	337,40
877,65	366,59
877,82	333,82
877,99	245,24
878,16	305,66
878,33	300,54
878,49	281,60
878,66	321,53
878,83	279,04
879,00	283,64
879,17	329,21
879,33	301,05
879,50	306,17
879,67	257,02
879,84	222,72
880,01	303,61
880,17	295,93
880,34	295,42
880,51	279,04
880,68	311,29
880,84	274,94
881,01	299,00
881,18	308,22
881,35	302,59
881,52	274,94
881,68	272,38
881,85	279,04
882,02	249,34
882,19	281,08
882,35	288,25
882,52	312,32
882,69	294,91
882,86	214,01
883,02	252,92
883,19	283,64
883,36	289,79
883,53	251,90
883,69	239,10
883,86	237,05
884,03	232,44
884,19	247,80
884,36	236,54
884,53	220,16
884,70	235,00
884,86	267,26
885,03	256,00
885,20	296,96
885,37	252,41
885,53	244,22
885,70	247,80
885,87	231,42
886,03	271,87
886,20	242,17
886,37	284,16
886,54	283,64
886,70	286,72
886,87	251,39
887,04	231,42
887,20	299,52
887,37	260,60
887,54	276,99
887,70	240,12
887,87	210,43
888,04	201,21
888,20	276,99
888,37	206,84
888,54	210,94
888,71	263,68
888,87	252,92
889,04	262,14
889,21	265,72
889,37	220,16
889,54	182,27
889,71	260,09
889,87	220,67
890,04	244,73
890,21	244,73
890,37	244,73
890,54	244,73
890,71	244,73
890,87	244,73
>>>>>End Processed Spectral Data<<<<<
