SpectraSuite Datei
++++++++++++++++++++++++++++++++++++
Datum: Mon Nov 11 14:26:12 CET 2019
Benutzer: user
Dark-Spektrum vorhanden: Ja
Referenz-Spektrum vorhanden: Nein
Zahl der probierten Teilspektren: 1
Spektrometer: USB4F04607
Integrationszeit (usec): 130000 (USB4F04607)
Spektren Durchschnitt berechnet: 4 (USB4F04607)
Boxcar Glättung: 0 (USB4F04607)
Dunkelstromkorrektur: Nein (USB4F04607)
Puls/Lampe aktiviert: Nein (USB4F04607)
Correct for Detector Non-linearity: Nein (USB4F04607)
Streulichtkorrektur: Nein (USB4F04607)
Anzahl Pixel in verarbeitetem Spektrum: 3648
>>>>>Begin Processed Spectral Data<<<<<
177,66	-2,05
177,88	-2,05
178,10	-2,05
178,32	-46,59
178,53	-38,91
178,75	1,54
178,97	-40,45
179,19	-24,06
179,40	-4,61
179,62	27,14
179,84	-22,02
180,05	31,23
180,27	-3,07
180,49	-14,85
180,71	23,04
180,92	21,50
181,14	-7,68
181,36	-13,82
181,58	93,69
181,79	28,67
182,01	59,90
182,23	61,95
182,44	65,02
182,66	30,21
182,88	2,56
183,10	62,98
183,31	56,32
183,53	57,86
183,75	41,47
183,96	19,97
184,18	59,39
184,40	23,55
184,62	42,50
184,83	24,06
185,05	81,41
185,27	82,43
185,48	11,78
185,70	13,31
185,92	-8,70
186,14	59,39
186,35	40,45
186,57	14,85
186,79	55,30
187,00	49,66
187,22	43,01
187,44	25,09
187,66	0,51
187,87	2,05
188,09	-31,74
188,31	29,70
188,52	24,06
188,74	34,30
188,96	52,74
189,17	33,28
189,39	36,86
189,61	74,24
189,82	-7,17
190,04	30,72
190,26	31,23
190,48	68,61
190,69	36,35
190,91	41,47
191,13	48,13
191,34	10,75
191,56	31,74
191,78	19,97
191,99	44,03
192,21	50,18
192,43	56,32
192,64	7,68
192,86	46,08
193,08	32,26
193,29	70,14
193,51	32,77
193,73	39,94
193,94	20,48
194,16	55,30
194,38	4,10
194,60	77,31
194,81	34,82
195,03	74,75
195,25	12,29
195,46	23,04
195,68	26,62
195,90	53,25
196,11	58,88
196,33	51,20
196,55	23,04
196,76	23,04
196,98	72,70
197,20	67,58
197,41	87,04
197,63	7,17
197,85	34,82
198,06	16,90
198,28	64,51
198,50	74,75
198,71	21,50
198,93	25,60
199,14	39,94
199,36	61,95
199,58	9,73
199,79	30,21
200,01	24,06
200,23	68,61
200,44	32,77
200,66	32,26
200,88	36,86
201,09	20,48
201,31	73,73
201,53	67,07
201,74	33,79
201,96	17,41
202,18	-28,16
202,39	17,41
202,61	34,82
202,83	30,21
203,04	26,62
203,26	28,16
203,47	66,05
203,69	52,74
203,91	38,91
204,12	36,86
204,34	-4,61
204,56	33,28
204,77	16,90
204,99	44,54
205,21	6,66
205,42	15,36
205,64	66,05
205,85	17,92
206,07	39,42
206,29	18,94
206,50	45,57
206,72	68,61
206,94	65,53
207,15	43,01
207,37	63,49
207,58	59,39
207,80	47,10
208,02	-30,72
208,23	43,52
208,45	88,06
208,67	11,26
208,88	29,70
209,10	20,48
209,31	76,80
209,53	3,07
209,75	25,60
209,96	12,80
210,18	43,52
210,40	46,08
210,61	75,26
210,83	47,62
211,04	80,38
211,26	46,59
211,48	0,51
211,69	-24,58
211,91	36,86
212,12	28,16
212,34	31,74
212,56	50,69
212,77	33,79
212,99	27,14
213,20	67,58
213,42	1,02
213,64	35,33
213,85	22,53
214,07	-15,36
214,28	52,22
214,50	45,06
214,72	70,14
214,93	51,71
215,15	35,33
215,36	-16,90
215,58	31,23
215,80	6,66
216,01	41,98
216,23	8,19
216,44	30,21
216,66	25,60
216,88	36,86
217,09	48,13
217,31	95,23
217,52	29,18
217,74	50,69
217,95	92,16
218,17	56,32
218,39	72,70
218,60	77,31
218,82	47,62
219,03	34,30
219,25	55,30
219,47	37,89
219,68	52,22
219,90	2,05
220,11	54,78
220,33	50,18
220,54	45,57
220,76	16,90
220,98	51,20
221,19	42,50
221,41	59,39
221,62	42,50
221,84	10,75
222,05	71,17
222,27	-10,75
222,48	63,49
222,70	44,54
222,92	-2,56
223,13	44,03
223,35	41,47
223,56	48,64
223,78	34,82
223,99	44,54
224,21	48,64
224,43	24,06
224,64	43,01
224,86	22,02
225,07	31,23
225,29	52,22
225,50	8,70
225,72	45,06
225,93	23,04
226,15	70,65
226,37	37,38
226,58	50,18
226,80	24,58
227,01	69,63
227,23	2,56
227,44	62,46
227,66	12,29
227,87	83,45
228,09	40,96
228,30	77,82
228,52	54,27
228,74	32,26
228,95	0,00
229,17	73,73
229,38	36,35
229,60	50,69
229,81	32,77
230,03	67,58
230,24	-0,00
230,46	51,20
230,67	16,90
230,89	74,24
231,10	41,98
231,32	-40,96
231,53	70,65
231,75	-4,61
231,97	50,18
232,18	51,20
232,40	50,18
232,61	44,03
232,83	37,38
233,04	26,11
233,26	48,64
233,47	16,90
233,69	38,91
233,90	15,36
234,12	-2,05
234,33	58,37
234,55	23,04
234,76	33,28
234,98	-1,02
235,19	47,62
235,41	82,94
235,62	24,06
235,84	53,76
236,05	24,58
236,27	38,91
236,48	20,48
236,70	72,19
236,91	62,46
237,13	84,99
237,34	62,98
237,56	48,13
237,77	44,54
237,99	44,03
238,20	-2,56
238,42	14,85
238,63	-4,61
238,85	47,10
239,06	39,42
239,28	29,70
239,49	36,86
239,71	10,75
239,92	81,92
240,14	30,72
240,35	85,50
240,57	10,24
240,78	99,33
241,00	26,62
241,21	78,85
241,43	17,92
241,64	49,66
241,86	57,34
242,07	36,86
242,29	42,50
242,50	40,45
242,72	29,18
242,93	36,35
243,15	51,20
243,36	37,89
243,58	74,75
243,79	32,26
244,01	11,26
244,22	36,35
244,44	86,01
244,65	115,71
244,87	27,65
245,08	43,52
245,29	66,56
245,51	40,45
245,72	62,98
245,94	21,50
246,15	90,11
246,37	31,74
246,58	-16,38
246,80	83,97
247,01	83,97
247,23	24,58
247,44	47,10
247,66	59,90
247,87	69,12
248,09	91,65
248,30	19,46
248,51	44,54
248,73	48,13
248,94	13,82
249,16	88,57
249,37	34,30
249,59	26,11
249,80	56,32
250,02	77,82
250,23	48,13
250,45	87,04
250,66	59,90
250,87	5,63
251,09	28,16
251,30	35,84
251,52	22,02
251,73	66,05
251,95	56,32
252,16	23,55
252,38	31,23
252,59	37,89
252,80	43,01
253,02	87,04
253,23	70,65
253,45	36,86
253,66	54,27
253,88	45,06
254,09	60,42
254,30	46,08
254,52	66,56
254,73	59,39
254,95	79,87
255,16	60,93
255,38	31,23
255,59	49,15
255,80	86,53
256,02	19,97
256,23	2,05
256,45	74,24
256,66	31,74
256,88	109,57
257,09	26,62
257,30	93,69
257,52	58,88
257,73	66,05
257,95	9,73
258,16	46,59
258,38	31,23
258,59	51,71
258,80	28,67
259,02	39,94
259,23	60,93
259,45	25,09
259,66	86,53
259,87	93,18
260,09	39,94
260,30	90,62
260,52	66,05
260,73	42,50
260,94	99,33
261,16	45,06
261,37	48,13
261,59	23,04
261,80	-0,51
262,01	68,09
262,23	20,99
262,44	74,75
262,66	56,83
262,87	84,99
263,08	38,40
263,30	91,65
263,51	15,36
263,73	49,66
263,94	30,72
264,15	69,63
264,37	72,19
264,58	75,26
264,80	61,95
265,01	45,57
265,22	22,53
265,44	64,51
265,65	3,07
265,86	1,54
266,08	70,65
266,29	35,33
266,51	43,01
266,72	18,43
266,93	65,54
267,15	105,98
267,36	36,35
267,58	68,61
267,79	69,63
268,00	75,77
268,22	51,20
268,43	65,02
268,64	60,93
268,86	71,17
269,07	16,90
269,28	39,42
269,50	59,39
269,71	43,01
269,93	50,69
270,14	22,53
270,35	28,16
270,57	49,66
270,78	66,56
270,99	23,55
271,21	89,09
271,42	14,85
271,63	36,35
271,85	41,98
272,06	101,37
272,28	-4,10
272,49	60,42
272,70	87,04
272,92	67,58
273,13	97,79
273,34	22,02
273,56	34,30
273,77	52,22
273,98	79,87
274,20	27,65
274,41	36,35
274,62	13,82
274,84	46,59
275,05	53,76
275,26	52,74
275,48	50,69
275,69	65,53
275,90	45,06
276,12	46,59
276,33	75,26
276,54	64,00
276,76	96,77
276,97	40,96
277,18	68,09
277,40	84,99
277,61	3,07
277,82	98,81
278,04	53,76
278,25	40,96
278,46	99,84
278,68	64,51
278,89	91,13
279,10	79,87
279,32	27,14
279,53	-21,50
279,74	59,90
279,96	49,66
280,17	72,19
280,38	106,49
280,60	27,65
280,81	69,63
281,02	39,42
281,24	58,37
281,45	110,59
281,66	76,80
281,88	34,82
282,09	43,52
282,30	92,67
282,52	55,81
282,73	72,19
282,94	16,90
283,15	73,21
283,37	38,40
283,58	85,50
283,79	57,86
284,01	50,18
284,22	79,87
284,43	101,89
284,65	38,91
284,86	85,50
285,07	66,56
285,28	57,86
285,50	100,35
285,71	54,27
285,92	99,84
286,14	32,26
286,35	68,61
286,56	69,63
286,77	71,68
286,99	78,33
287,20	66,05
287,41	71,68
287,63	73,73
287,84	93,18
288,05	128,51
288,27	62,98
288,48	82,43
288,69	64,00
288,90	67,58
289,12	70,65
289,33	114,69
289,54	77,82
289,75	73,21
289,97	81,92
290,18	131,58
290,39	106,49
290,61	65,54
290,82	71,17
291,03	96,77
291,24	99,84
291,46	50,18
291,67	58,37
291,88	114,69
292,09	119,29
292,31	100,86
292,52	122,37
292,73	127,49
292,95	83,97
293,16	61,95
293,37	62,98
293,58	81,92
293,80	128,51
294,01	84,99
294,22	91,65
294,43	78,85
294,65	64,51
294,86	110,08
295,07	77,82
295,28	114,17
295,50	102,40
295,71	103,42
295,92	133,12
296,13	90,62
296,35	136,19
296,56	83,97
296,77	153,09
296,98	104,45
297,20	132,09
297,41	135,68
297,62	122,88
297,83	132,09
298,05	81,92
298,26	155,13
298,47	121,85
298,68	147,45
298,89	106,49
299,11	97,28
299,32	129,53
299,53	154,11
299,74	116,22
299,96	115,20
300,17	84,48
300,38	173,05
300,59	115,71
300,81	150,01
301,02	123,39
301,23	168,96
301,44	142,33
301,65	155,65
301,87	137,21
302,08	180,73
302,29	192,51
302,50	118,78
302,72	145,41
302,93	207,36
303,14	234,49
303,35	207,36
303,56	235,52
303,78	235,00
303,99	200,19
304,20	224,25
304,41	233,47
304,62	299,00
304,84	250,88
305,05	348,67
305,26	334,84
305,47	330,23
305,68	385,53
305,90	373,75
306,11	315,90
306,32	383,48
306,53	396,79
306,74	428,54
306,96	443,90
307,17	454,14
307,38	455,16
307,59	525,82
307,80	498,68
308,02	566,78
308,23	645,62
308,44	674,81
308,65	748,02
308,86	702,97
309,08	825,84
309,29	945,14
309,50	899,06
309,71	940,02
309,92	1051,12
310,13	1077,74
310,35	1068,53
310,56	1159,66
310,77	1191,41
310,98	1171,95
311,19	1257,96
311,41	1282,03
311,62	1408,49
311,83	1444,84
312,04	1511,91
312,25	1550,82
312,46	1650,15
312,68	1670,12
312,89	1723,37
313,10	1698,28
313,31	1709,54
313,52	1736,68
313,73	1706,98
313,95	1809,89
314,16	1951,20
314,37	2115,55
314,58	2269,15
314,79	2412,00
315,00	2459,61
315,22	2505,18
315,43	2579,93
315,64	2535,90
315,85	2496,99
316,06	2511,32
316,27	2717,65
316,48	2851,28
316,70	2879,96
316,91	3031,51
317,12	2972,11
317,33	3069,39
317,54	3021,78
317,75	3060,18
317,97	3176,40
318,18	3523,53
318,39	3640,26
318,60	3698,12
318,81	3691,46
319,02	3837,38
319,23	3717,58
319,45	3766,21
319,66	3829,19
319,87	3847,62
320,08	3796,42
320,29	3826,63
320,50	3813,83
320,71	3909,06
320,92	3913,16
321,14	4172,22
321,35	4483,52
321,56	4786,10
321,77	4922,29
321,98	5114,29
322,19	5203,89
322,40	5299,12
322,61	5258,67
322,83	5489,07
323,04	5528,49
323,25	5874,09
323,46	6317,47
323,67	6715,29
323,88	6792,09
324,09	7061,91
324,30	7155,09
324,52	7215,51
324,73	7177,11
324,94	7125,40
325,15	7114,13
325,36	6941,59
325,57	6719,39
325,78	6734,23
325,99	6827,42
326,20	6889,37
326,41	7246,23
326,63	7525,26
326,84	7798,15
327,05	8345,98
327,26	8564,61
327,47	8861,56
327,68	8548,22
327,89	8633,72
328,10	8275,84
328,31	8165,25
328,52	7840,65
328,74	7877,51
328,95	7661,45
329,16	8142,21
329,37	8104,32
329,58	8116,61
329,79	8320,90
330,00	8263,04
330,21	8316,80
330,42	8424,32
330,63	8390,53
330,84	8260,48
331,06	8167,30
331,27	8212,87
331,48	7941,00
331,69	8098,18
331,90	8201,60
332,11	8504,19
332,32	8529,79
332,53	8825,72
332,74	8655,74
332,95	9007,99
333,16	8785,79
333,37	8711,55
333,58	8288,13
333,79	8269,19
334,01	7822,22
334,22	7947,14
334,43	7706,51
334,64	7804,81
334,85	7801,74
335,06	7941,51
335,27	7950,73
335,48	8304,51
335,69	8405,38
335,90	8715,13
336,11	8856,44
336,32	9069,43
336,53	9199,99
336,74	9333,11
336,95	9187,70
337,16	9528,69
337,37	9436,53
337,59	9838,44
337,80	9863,53
338,01	9920,87
338,22	9924,46
338,43	9740,14
338,64	9591,15
338,85	9508,72
339,06	9478,00
339,27	9544,05
339,48	9620,33
339,69	9805,67
339,90	10057,06
340,11	10221,41
340,32	10274,66
340,53	10415,46
340,74	10136,93
340,95	10136,93
341,16	9877,87
341,37	9602,41
341,58	9172,34
341,79	8924,54
342,00	8416,64
342,21	8497,02
342,42	8911,74
342,63	9215,86
342,84	9646,96
343,05	9594,73
343,26	9999,21
343,48	10096,49
343,69	9812,33
343,90	10001,26
344,11	9865,58
344,32	9954,66
344,53	10239,33
344,74	10160,48
344,95	9864,04
345,16	9960,30
345,37	9885,55
345,58	9777,00
345,79	9949,03
346,00	10060,13
346,21	9946,47
346,42	9873,77
346,63	9943,40
346,84	9824,11
347,05	9954,66
347,26	10263,40
347,47	10336,61
347,68	10798,94
347,89	11038,55
348,10	11451,73
348,31	11657,04
348,52	11698,51
348,73	11247,96
348,94	11280,21
349,15	10713,95
349,36	11060,06
349,57	10797,40
349,78	10688,35
349,99	10542,94
350,20	10794,84
350,41	10476,38
350,62	10938,20
350,83	11207,51
351,04	11448,66
351,25	12007,24
351,45	12285,25
351,66	12387,65
351,87	12552,00
352,08	12651,33
352,29	12816,19
352,50	12507,97
352,71	12570,94
352,92	12496,71
353,13	12411,20
353,34	12145,48
353,55	12054,34
353,76	11589,46
353,97	11289,94
354,18	10900,83
354,39	10679,65
354,60	10251,11
354,81	10062,69
355,02	9943,91
355,23	9909,10
355,44	9689,45
355,65	9388,91
355,86	9163,64
356,07	9082,74
356,28	9049,97
356,49	9622,89
356,70	10017,13
356,91	10977,62
357,12	11600,21
357,32	11949,90
357,53	12276,04
357,74	12291,40
357,95	12073,29
358,16	11841,87
358,37	11213,65
358,58	11029,34
358,79	10861,91
359,00	11060,57
359,21	11150,17
359,42	11113,81
359,63	11134,29
359,84	11655,50
360,05	11772,24
360,26	12369,22
360,47	12550,98
360,68	12405,57
360,88	12180,81
361,09	12572,99
361,30	12292,93
361,51	12520,77
361,72	12702,53
361,93	12910,40
362,14	12550,46
362,35	12770,62
362,56	12743,49
362,77	13117,24
362,98	13622,58
363,19	14188,84
363,40	14482,72
363,60	14752,03
363,81	15086,87
364,02	15029,02
364,23	15093,02
364,44	15003,42
364,65	14802,21
364,86	14807,33
365,07	14637,86
365,28	14398,76
365,49	14350,63
365,70	14170,41
365,91	13934,89
366,11	14029,61
366,32	14224,17
366,53	14209,32
366,74	14422,31
366,95	14753,57
367,16	14925,60
367,37	15169,30
367,58	15171,86
367,79	15126,81
368,00	14609,70
368,20	14255,91
368,41	13960,49
368,62	14135,59
368,83	14225,19
369,04	14366,50
369,25	14459,68
369,46	14028,59
369,67	13735,21
369,88	13412,66
370,08	12950,84
370,29	12889,92
370,50	12785,98
370,71	12525,38
370,92	11853,13
371,13	11649,87
371,34	11312,47
371,55	11385,17
371,75	11409,75
371,96	11324,24
372,17	11256,15
372,38	11313,49
372,59	11516,24
372,80	12137,29
373,01	12240,71
373,22	12624,19
373,42	13216,57
373,63	13077,30
373,84	12839,74
374,05	12877,12
374,26	12943,67
374,47	13451,06
374,68	13580,59
374,88	14246,69
375,09	14748,45
375,30	15251,74
375,51	15589,14
375,72	15912,21
375,93	15360,79
376,14	15310,61
376,34	14916,89
376,55	14634,78
376,76	13778,22
376,97	13387,06
377,18	12905,28
377,39	12810,56
377,59	12852,03
377,80	13362,48
378,01	13313,33
378,22	13874,99
378,43	13904,68
378,64	13909,80
378,85	13387,06
379,05	12972,86
379,26	12439,87
379,47	11633,49
379,68	10924,89
379,89	10434,91
380,10	9939,82
380,30	9691,50
380,51	9316,72
380,72	9030,52
380,93	8827,26
381,14	8891,26
381,34	9015,67
381,55	9568,62
381,76	10078,05
381,97	10782,04
382,18	11336,53
382,39	11980,62
382,59	12005,70
382,80	12211,53
383,01	12189,51
383,22	11966,28
383,43	11749,20
383,63	12132,17
383,84	11865,42
384,05	12002,63
384,26	12225,35
384,47	12340,04
384,68	12027,21
384,88	12291,40
385,09	12314,95
385,30	12201,80
385,51	12163,40
385,72	12104,01
385,92	12090,70
386,13	12163,91
386,34	12202,31
386,55	12892,99
386,76	13195,06
386,96	13705,52
387,17	14154,54
387,38	14785,31
387,59	14851,36
387,79	15167,26
388,00	14840,61
388,21	15269,65
388,42	15704,34
388,63	15802,13
388,83	15825,68
389,04	16330,50
389,25	15855,37
389,46	15653,14
389,67	14996,25
389,87	14204,20
390,08	13105,98
390,29	11861,84
390,50	10693,47
390,70	9740,65
390,91	8943,99
391,12	8829,31
391,33	8943,48
391,53	9730,41
391,74	10605,92
391,95	11966,28
392,16	12836,16
392,37	13964,07
392,57	14739,23
392,78	15258,39
392,99	15644,95
393,20	15767,82
393,40	14953,24
393,61	14406,95
393,82	13389,62
394,03	12067,66
394,23	10928,99
394,44	10382,18
394,65	10428,77
394,86	11040,60
395,06	11874,12
395,27	13904,68
395,48	14968,60
395,69	16736,51
395,89	17596,66
396,10	18381,54
396,31	18890,98
396,52	19832,53
396,72	20106,45
396,93	20515,53
397,14	20319,43
397,35	21201,08
397,55	21106,37
397,76	21180,60
397,97	21173,44
398,18	21644,47
398,38	21365,95
398,59	21702,84
398,80	21851,31
399,00	22369,45
399,21	22850,21
399,42	22913,70
399,63	22454,95
399,83	22434,47
400,04	22874,79
400,25	23160,99
400,46	22583,46
400,66	22142,64
400,87	22339,76
401,08	22372,52
401,28	22266,03
401,49	22232,24
401,70	21900,47
401,91	22237,87
402,11	22141,10
402,32	21882,03
402,53	21784,76
402,73	21847,22
402,94	21737,65
403,15	22330,03
403,35	21772,98
403,56	21602,49
403,77	21084,86
403,98	21824,18
404,18	21211,84
404,39	21799,60
404,60	21592,25
404,80	21660,85
405,01	21730,48
405,22	22270,12
405,42	21983,92
405,63	22366,38
405,84	22568,10
406,05	23521,95
406,25	23330,97
406,46	23970,96
406,67	23620,76
406,87	23605,40
407,08	22855,33
407,29	22783,14
407,49	21710,52
407,70	21634,23
407,91	21132,99
408,11	21420,22
408,32	21755,06
408,53	22939,30
408,73	22969,51
408,94	23920,79
409,15	24305,29
409,35	24748,17
409,56	24414,35
409,77	24749,19
409,97	24289,42
410,18	24581,77
410,39	24162,96
410,59	23842,45
410,80	23514,27
411,01	24360,08
411,21	23973,52
411,42	24336,01
411,63	24016,02
411,83	24550,03
412,04	24095,89
412,25	24465,55
412,45	23887,00
412,66	23987,35
412,87	23887,51
413,07	24125,07
413,28	24056,98
413,49	24293,01
413,69	24093,33
413,90	24692,87
414,11	24228,49
414,31	24601,74
414,52	24046,74
414,72	23717,53
414,93	23685,27
415,14	23327,39
415,34	23059,62
415,55	23230,62
415,76	23479,45
415,96	23381,66
416,17	23231,65
416,38	23116,96
416,58	23462,55
416,79	23343,77
416,99	22871,72
417,20	23207,07
417,41	23137,44
417,61	22922,91
417,82	22795,94
418,03	23362,72
418,23	23568,54
418,44	23831,19
418,64	23960,72
418,85	24260,75
419,06	24252,56
419,26	24210,06
419,47	23769,75
419,67	23490,71
419,88	22898,34
420,09	22992,03
420,29	22171,31
420,50	22549,67
420,71	22433,45
420,91	22631,59
421,12	22629,54
421,32	22908,58
421,53	22949,03
421,74	23137,95
421,94	22930,59
422,15	23470,75
422,35	23167,65
422,56	23306,91
422,77	22869,16
422,97	22630,05
423,18	22628,01
423,38	23299,23
423,59	22964,90
423,80	23066,78
424,00	22815,91
424,21	22957,73
424,41	22080,18
424,62	22672,55
424,82	21661,88
425,03	22160,05
425,24	22223,02
425,44	22256,81
425,65	22311,08
425,85	23163,04
426,06	22415,02
426,26	22185,13
426,47	21542,58
426,68	21589,17
426,88	20826,82
427,09	20787,39
427,29	20105,93
427,50	19584,73
427,70	18530,02
427,91	17737,97
428,12	17530,10
428,32	17698,03
428,53	17956,08
428,73	18923,74
428,94	20110,54
429,14	21010,62
429,35	22538,92
429,56	23529,11
429,76	23666,84
429,97	23677,08
430,17	23519,90
430,38	23761,56
430,58	24036,50
430,79	24247,44
430,99	24116,37
431,20	24150,67
431,40	23192,73
431,61	23146,65
431,82	23227,04
432,02	23016,61
432,23	23816,85
432,43	24457,87
432,64	23957,14
432,84	25077,38
433,05	25106,05
433,25	25409,66
433,46	26044,53
433,66	26414,70
433,87	26400,88
434,07	26505,84
434,28	26960,48
434,49	26870,37
434,69	26155,12
434,90	26023,54
435,10	25757,30
435,31	25922,16
435,51	24729,22
435,72	24803,97
435,92	23848,60
436,13	24357,00
436,33	24083,60
436,54	24588,94
436,74	24943,75
436,95	25716,86
437,15	25360,51
437,36	25948,28
437,56	25493,11
437,77	25582,20
437,97	25658,49
438,18	26157,17
438,38	26255,47
438,59	26894,95
438,79	26538,09
439,00	27544,67
439,20	27190,37
439,41	27597,91
439,61	27822,68
439,82	28024,40
440,02	27892,31
440,23	27755,61
440,43	28031,57
440,64	28168,79
440,84	27920,98
441,05	28188,75
441,25	27995,73
441,46	28229,71
441,66	28060,76
441,87	28544,59
442,07	27996,24
442,28	28286,03
442,48	27418,72
442,69	27915,35
442,89	27850,84
443,10	27205,22
443,30	26797,16
443,51	26929,77
443,71	27032,16
443,92	26799,21
444,12	27538,52
444,32	28058,71
444,53	28035,67
444,73	28498,51
444,94	28393,04
445,14	28994,12
445,35	28686,92
445,55	28703,31
445,76	28509,77
445,96	29204,03
446,17	28904,01
446,37	29084,23
446,58	28933,19
446,78	29194,31
446,98	28756,04
447,19	28867,14
447,39	29229,63
447,60	30017,59
447,80	29829,18
448,01	30063,67
448,21	30544,94
448,42	30702,12
448,62	30629,93
448,82	30424,62
449,03	30109,24
449,23	29651,00
449,44	29699,13
449,64	30028,34
449,85	29072,45
450,05	28464,21
450,26	28422,73
450,46	27612,76
450,66	27863,13
450,87	28134,99
451,07	27776,60
451,28	28253,26
451,48	28020,31
451,69	29032,00
451,89	28822,60
452,09	28758,09
452,30	28643,91
452,50	28594,76
452,71	28918,34
452,91	29259,33
453,12	29401,15
453,32	29502,01
453,52	29729,85
453,73	30114,36
453,93	30285,36
454,14	29609,53
454,34	29845,56
454,54	30105,65
454,75	30195,25
454,95	30394,93
455,16	30143,54
455,36	30037,05
455,56	29213,76
455,77	30484,53
455,97	29365,31
456,18	29271,11
456,38	29705,79
456,58	29772,35
456,79	29619,77
456,99	30096,44
457,20	29980,73
457,40	29698,62
457,60	30111,80
457,81	30959,66
458,01	30492,72
458,22	30351,92
458,42	30986,28
458,62	31353,38
458,83	31132,20
459,03	31750,17
459,23	31636,00
459,44	31815,71
459,64	31553,57
459,85	31999,00
460,05	31583,26
460,25	31488,03
460,46	31269,41
460,66	31868,44
460,86	31642,65
461,07	31993,37
461,27	31969,30
461,48	31200,80
461,68	31684,64
461,88	31414,82
462,09	31648,29
462,29	31642,65
462,49	31970,84
462,70	31950,36
462,90	32670,73
463,10	32331,28
463,31	32584,72
463,51	32569,87
463,72	33314,82
463,92	32296,47
464,12	32204,82
464,33	32255,00
464,53	32456,72
464,73	32358,42
464,94	32976,90
465,14	33069,06
465,34	33035,27
465,55	33611,78
465,75	33676,80
465,95	33107,46
466,16	34155,51
466,36	34402,80
466,56	33688,57
466,77	34608,62
466,97	35413,99
467,17	35231,72
467,38	34450,42
467,58	34426,35
467,78	34284,02
467,99	34713,07
468,19	35043,82
468,39	36174,30
468,60	35444,20
468,80	36174,81
469,00	36762,06
469,21	37423,56
469,41	37881,79
469,61	38401,97
469,82	39177,13
470,02	39014,32
470,22	38763,95
470,42	39175,08
470,63	39507,37
470,83	39733,67
471,03	39904,16
471,24	40570,26
471,44	40466,84
471,64	41097,61
471,85	41283,98
472,05	43007,86
472,25	43144,56
472,46	42609,01
472,66	43532,65
472,86	43442,03
473,06	43970,91
473,27	44089,18
473,47	43978,08
473,67	44383,58
473,88	44047,71
474,08	44365,66
474,28	44411,23
474,48	45559,11
474,69	45906,24
474,89	46472,51
475,09	47185,20
475,30	47447,34
475,50	48153,38
475,70	48693,02
475,90	49279,25
476,11	48465,69
476,31	48679,19
476,51	49869,06
476,72	50706,68
476,92	50251,52
477,12	50604,28
477,32	51700,46
477,53	51311,35
477,73	52233,44
477,93	52541,15
478,13	52718,81
478,34	51816,68
478,54	53452,50
478,74	53508,82
478,94	53675,72
479,15	53757,13
479,35	54150,34
479,55	54399,17
479,75	55343,28
479,96	55528,62
480,16	54941,88
480,36	55099,58
480,57	55549,62
480,77	55647,92
480,97	55320,76
481,17	54879,42
481,37	55601,33
481,58	55438,51
481,78	55098,04
481,98	55451,83
482,18	55339,19
482,39	55457,97
482,59	54874,81
482,79	53863,11
482,99	52815,07
483,20	51653,87
483,40	50851,58
483,60	49677,07
483,80	49349,39
484,01	49138,45
484,21	49744,14
484,41	49919,24
484,61	51148,02
484,81	52323,04
485,02	53401,30
485,22	53714,64
485,42	54650,05
485,62	55154,36
485,83	55312,56
486,03	55824,04
486,23	55576,24
486,43	55936,68
486,63	56173,73
486,84	56842,91
487,04	57172,63
487,24	58113,67
487,44	58297,99
487,64	58590,85
487,85	59369,59
488,05	59277,43
488,25	59630,71
488,45	58693,76
488,65	59214,97
488,86	58385,54
489,06	58409,09
489,26	57276,57
489,46	57217,17
489,66	57156,25
489,87	57162,90
490,07	57257,11
490,27	57265,30
490,47	58123,40
490,67	57936,01
490,88	58646,66
491,08	58397,83
491,28	59183,22
491,48	58724,48
491,68	59103,87
491,88	59642,48
492,09	59642,48
492,29	59987,56
492,49	60022,38
492,69	60538,47
492,89	59915,37
493,09	59743,86
493,30	59937,39
493,50	59656,82
493,70	59435,13
493,90	60080,24
494,10	59616,37
494,30	59828,85
494,51	59993,71
494,71	60060,27
494,91	59813,49
495,11	59768,43
495,31	59292,79
495,51	59068,03
495,72	58508,42
495,92	57929,87
496,12	58083,98
496,32	57751,69
496,52	58165,38
496,72	58327,69
496,92	58297,48
497,13	58309,77
497,33	58229,38
497,53	57943,18
497,73	57728,66
497,93	57560,21
498,13	57021,08
498,33	56576,67
498,54	56179,88
498,74	56330,40
498,94	55990,95
499,14	55487,67
499,34	55843,50
499,54	55923,88
499,74	55743,66
499,94	56438,43
500,15	56316,07
500,35	56988,83
500,55	56534,69
500,75	57272,98
500,95	56754,33
501,15	57012,89
501,35	56494,24
501,55	56382,12
501,76	56176,81
501,96	56517,28
502,16	56239,27
502,36	57118,36
502,56	57115,80
502,76	57703,06
502,96	58351,24
503,16	58501,76
503,36	58753,15
503,57	59143,80
503,77	59683,44
503,97	59319,41
504,17	59201,14
504,37	58859,13
504,57	58901,12
504,77	58688,13
504,97	58437,76
505,17	58266,76
505,37	58046,09
505,57	57982,09
505,78	57899,66
505,98	58947,20
506,18	58893,44
506,38	59409,53
506,58	59839,09
506,78	59981,93
506,98	60237,93
507,18	60177,00
507,38	60184,68
507,58	60443,75
507,78	60231,78
507,98	60533,86
508,19	60365,41
508,39	60588,64
508,59	61236,83
508,79	61551,19
508,99	61584,98
509,19	62419,02
509,39	62053,45
509,59	61936,72
509,79	62238,28
509,99	62232,14
510,19	62195,79
510,39	61548,63
510,59	61377,62
510,79	61855,31
510,99	61263,45
511,19	61134,94
511,39	61487,70
511,60	61363,80
511,80	60921,95
512,00	61467,22
512,20	61443,67
512,40	61789,27
512,60	62282,83
512,80	62033,49
513,00	62927,94
513,20	62446,66
513,40	62415,94
513,60	62341,19
513,80	61084,25
514,00	60243,56
514,20	58840,70
514,40	58249,35
514,60	57365,14
514,80	57141,40
515,00	57254,55
515,20	57405,08
515,40	57948,81
515,60	58144,90
515,80	57893,00
516,00	58747,52
516,20	58614,40
516,40	59461,75
516,60	59804,27
516,80	60156,01
517,00	60795,49
517,20	61729,87
517,40	62018,64
517,60	62405,19
517,80	62649,41
518,00	62683,20
518,20	62857,28
518,40	63098,43
518,60	63059,52
518,80	63292,99
519,00	63395,90
519,20	63467,58
519,40	63483,45
519,60	63427,13
519,80	62955,07
520,00	63133,76
520,20	62583,88
520,40	62576,71
520,60	62081,61
520,80	62534,73
521,00	62384,71
521,20	63119,93
521,40	62787,65
521,60	63441,98
521,80	63657,52
522,00	63783,99
522,20	63501,37
522,40	63572,02
522,60	63437,88
522,80	63392,31
523,00	63069,76
523,20	62920,77
523,40	61873,74
523,60	61432,92
523,80	60541,54
524,00	59523,70
524,20	58842,24
524,40	57890,96
524,60	57715,86
524,80	57511,57
525,00	57677,97
525,20	58670,21
525,40	58822,27
525,60	59832,94
525,80	60089,96
526,00	60809,31
526,20	61278,81
526,40	60910,69
526,60	61571,16
526,79	62214,73
526,99	61738,07
527,19	61891,66
527,39	61232,22
527,59	61632,08
527,79	61280,86
527,99	61590,10
528,19	61528,66
528,39	62253,64
528,59	61863,50
528,79	61738,58
528,99	61549,14
529,19	61711,95
529,39	60767,33
529,59	60474,47
529,79	59907,18
529,98	59555,96
530,18	58564,74
530,38	58637,44
530,58	58163,85
530,78	58451,59
530,98	58817,66
531,18	58424,96
531,38	58390,66
531,58	58955,90
531,78	58430,08
531,98	59163,26
532,18	58922,62
532,37	59077,75
532,57	59049,59
532,77	59678,32
532,97	59924,08
533,17	60173,42
533,37	59820,66
533,57	59996,78
533,77	59931,25
533,97	59067,00
534,17	58775,68
534,37	58550,91
534,56	57938,57
534,76	58121,87
534,96	57516,18
535,16	57996,43
535,36	58092,17
535,56	58333,32
535,76	58390,66
535,96	58359,43
536,16	58228,87
536,35	57884,30
536,55	57634,96
536,75	57148,57
536,95	57276,57
537,15	56788,13
537,35	56375,46
537,55	56178,34
537,75	55520,94
537,94	55657,13
538,14	55370,42
538,34	55337,65
538,54	55059,64
538,74	55382,71
538,94	55293,11
539,14	55305,40
539,34	55274,16
539,53	55805,61
539,73	55513,26
539,93	55995,56
540,13	55567,02
540,33	55744,17
540,53	55379,63
540,73	55725,23
540,92	55342,26
541,12	56020,65
541,32	55420,08
541,52	56083,62
541,72	56070,82
541,92	56118,44
542,11	55914,15
542,31	56059,56
542,51	55993,00
542,71	56030,38
542,91	55897,26
543,11	56036,52
543,30	55834,80
543,50	55945,90
543,70	55631,02
543,90	55589,55
544,10	55514,29
544,30	55391,41
544,49	55304,88
544,69	55313,08
544,89	54910,14
545,09	55020,22
545,29	54563,01
545,49	54803,64
545,68	55071,93
545,88	54853,82
546,08	54662,85
546,28	54843,07
546,48	55072,95
546,67	55062,20
546,87	55418,55
547,07	55431,86
547,27	55082,68
547,47	55274,16
547,67	55064,25
547,86	55214,77
548,06	54966,97
548,26	55456,43
548,46	54667,97
548,66	55021,24
548,85	54776,00
549,05	55134,90
549,25	55091,90
549,45	55141,05
549,65	55052,98
549,84	55386,29
550,04	54529,73
550,24	54212,80
550,44	54462,66
550,63	54172,36
550,83	54069,45
551,03	54544,06
551,23	54205,12
551,43	54720,70
551,62	54737,60
551,82	54526,66
552,02	54650,56
552,22	54743,23
552,41	54928,57
552,61	54897,85
552,81	54858,94
553,01	55034,04
553,21	54359,23
553,40	54229,19
553,60	54021,32
553,80	54466,75
554,00	53827,27
554,19	53676,75
554,39	53491,41
554,59	53107,93
554,79	52942,04
554,98	53022,93
555,18	52868,83
555,38	52447,46
555,58	52408,54
555,77	52532,96
555,97	52475,62
556,17	51962,60
556,37	51236,08
556,56	51513,58
556,76	51064,56
556,96	51019,51
557,16	50724,09
557,35	51261,17
557,55	51003,64
557,75	51570,93
557,95	51489,52
558,14	51557,61
558,34	51734,76
558,54	51892,46
558,73	51845,86
558,93	52134,12
559,13	51836,65
559,33	51381,49
559,52	51350,77
559,72	51092,72
559,92	51139,83
560,12	50851,58
560,31	51623,66
560,51	51141,36
560,71	51201,78
560,90	50990,33
561,10	51188,47
561,30	50850,55
561,50	50993,91
561,69	50977,01
561,89	50944,25
562,09	50657,53
562,28	50438,40
562,48	50681,59
562,68	50326,78
562,87	50089,22
563,07	49412,88
563,27	49756,42
563,47	48584,47
563,66	49234,19
563,86	48634,14
564,06	48938,77
564,25	48724,25
564,45	49518,86
564,65	49348,37
564,84	49134,87
565,04	49114,39
565,24	49025,81
565,43	48890,65
565,63	48771,86
565,83	48342,30
566,02	47707,43
566,22	48034,08
566,42	47405,87
566,61	47062,32
566,81	47293,74
567,01	47231,79
567,20	47259,44
567,40	46911,80
567,60	46652,22
567,79	46672,70
567,99	46143,30
568,19	45967,68
568,38	45934,92
568,58	45329,23
568,78	45432,14
568,97	45457,23
569,17	45649,22
569,37	45606,22
569,56	45747,53
569,76	46284,09
569,96	46372,16
570,15	45941,06
570,35	46481,72
570,55	46420,80
570,74	46217,02
570,94	46207,81
571,13	46128,45
571,33	45838,15
571,53	46229,82
571,72	45802,82
571,92	45619,02
572,12	45510,99
572,31	45237,07
572,51	45060,94
572,71	44818,26
572,90	44760,40
573,10	44553,05
573,29	44438,87
573,49	44376,92
573,69	44159,84
573,88	44174,17
574,08	44158,81
574,28	44192,09
574,47	44095,33
574,67	44350,81
574,86	44256,60
575,06	44317,02
575,26	43852,13
575,45	43500,39
575,65	43255,15
575,84	43359,08
576,04	43284,84
576,24	43323,24
576,43	43115,37
576,63	43067,76
576,82	43104,11
577,02	43317,61
577,22	43421,55
577,41	43403,63
577,61	43642,73
577,80	43540,33
578,00	43660,13
578,20	43960,16
578,39	44004,70
578,59	44003,68
578,78	44082,02
578,98	44216,16
579,17	44097,38
579,37	44539,22
579,57	44443,99
579,76	44676,44
579,96	44760,40
580,15	44587,35
580,35	44472,15
580,55	44795,73
580,74	44853,08
580,94	44832,60
581,13	44718,93
581,33	44650,84
581,52	44595,03
581,72	44488,54
581,91	44523,35
582,11	44598,62
582,31	44104,54
582,50	44309,85
582,70	44154,21
582,89	43990,37
583,09	43778,92
583,28	43652,45
583,48	43006,83
583,67	43214,19
583,87	43179,89
584,07	43204,46
584,26	43170,67
584,46	43291,50
584,65	43190,12
584,85	43012,98
585,04	42901,36
585,24	42839,92
585,43	42505,08
585,63	41944,45
585,82	41969,54
586,02	41222,54
586,21	40088,99
586,41	39294,38
586,61	38868,40
586,80	38254,52
587,00	37658,05
587,19	37840,32
587,39	37395,91
587,58	37930,43
587,78	38112,19
587,97	38657,97
588,17	39124,40
588,36	39770,53
588,56	39528,87
588,75	39909,79
588,95	39640,48
589,14	39891,36
589,34	39816,61
589,53	39535,52
589,73	39614,37
589,92	40002,97
590,12	40037,28
590,31	39844,77
590,51	40235,42
590,70	40082,33
590,90	40016,80
591,09	40552,85
591,29	39916,96
591,48	39926,69
591,68	39998,88
591,87	39408,04
592,07	39132,07
592,26	39504,29
592,46	39281,06
592,65	39456,17
592,85	39192,49
593,04	39430,57
593,24	39454,12
593,43	39633,32
593,63	39590,82
593,82	39702,95
594,01	39766,95
594,21	40043,93
594,40	40029,09
594,60	39914,91
594,79	40092,06
594,99	39820,70
595,18	39745,95
595,38	39721,89
595,57	39888,29
595,77	39713,70
595,96	39591,33
596,16	39600,04
596,35	39591,84
596,54	39556,52
596,74	39369,64
596,93	39682,47
597,13	39526,82
597,32	39597,48
597,52	39332,78
597,71	39577,00
597,91	39042,48
598,10	39295,40
598,29	39293,35
598,49	39183,27
598,68	39154,60
598,88	39447,46
599,07	38834,10
599,27	39257,00
599,46	38944,17
599,65	38736,30
599,85	38549,43
600,04	39015,34
600,24	38632,37
600,43	38857,65
600,63	39328,17
600,82	39393,70
601,01	39308,71
601,21	40177,05
601,40	39447,46
601,60	39528,36
601,79	39740,83
601,99	39719,84
602,18	39428,01
602,37	39741,86
602,57	39290,79
602,76	39524,77
602,96	39386,02
603,15	39698,85
603,34	39233,45
603,54	39432,61
603,73	39289,26
603,93	39445,41
604,12	39206,31
604,31	39393,70
604,51	39251,37
604,70	39518,12
604,90	39086,51
605,09	39413,67
605,28	39048,62
605,48	39217,58
605,67	39006,64
605,86	38828,46
606,06	38815,66
606,25	38628,79
606,45	38826,42
606,64	38700,98
606,83	38125,50
607,03	38487,48
607,22	38315,96
607,41	38172,60
607,61	38025,15
607,80	38230,97
608,00	37916,61
608,19	37810,62
608,38	37821,37
608,58	38001,60
608,77	37773,25
608,96	37923,77
609,16	37642,69
609,35	37568,96
609,54	37530,05
609,74	37398,98
609,93	37247,43
610,12	37150,15
610,32	37380,55
610,51	37143,50
610,71	36938,70
610,90	37078,47
611,09	36566,48
611,29	36455,89
611,48	36519,89
611,67	36278,23
611,87	36584,40
612,06	36430,80
612,25	36601,81
612,45	36699,09
612,64	36591,06
612,83	36410,32
613,03	36304,34
613,22	36303,32
613,41	36087,26
613,61	36042,71
613,80	35853,28
613,99	35843,55
614,18	35652,06
614,38	35410,92
614,57	35668,45
614,76	35856,86
614,96	35799,01
615,15	36052,44
615,34	36103,13
615,54	36235,74
615,73	36277,72
615,92	36719,57
616,12	36490,20
616,31	36894,16
616,50	36646,86
616,69	36782,54
616,89	36892,62
617,08	36788,69
617,27	37208,01
617,47	37123,02
617,66	37215,69
617,85	37365,70
618,05	37566,40
618,24	37662,66
618,43	37598,66
618,62	37901,76
618,82	37563,33
619,01	37730,75
619,20	37805,50
619,40	37415,37
619,59	37829,05
619,78	37878,21
619,97	37548,48
620,17	37653,95
620,36	37791,17
620,55	37745,09
620,74	37692,86
620,94	37795,26
621,13	37825,47
621,32	37576,13
621,51	37644,23
621,71	37952,44
621,90	37366,73
622,09	37709,25
622,29	37185,48
622,48	37224,39
622,67	37401,54
622,86	37416,90
623,06	37370,31
623,25	37098,95
623,44	37058,51
623,63	37257,16
623,83	37547,97
624,02	37677,51
624,21	37263,30
624,40	37465,54
624,59	37184,46
624,79	37172,17
624,98	36739,02
625,17	36597,71
625,36	35853,79
625,56	35900,89
625,75	35435,49
625,94	35385,83
626,13	35330,02
626,33	35360,23
626,52	35334,63
626,71	35622,37
626,90	35541,47
627,09	35315,69
627,29	35105,26
627,48	35319,27
627,67	35350,50
627,86	35298,28
628,05	35107,82
628,25	35534,82
628,44	35182,06
628,63	35280,87
628,82	35071,98
629,02	35049,45
629,21	35019,75
629,40	34779,12
629,59	34903,02
629,78	35128,81
629,98	35168,23
630,17	35188,20
630,36	35081,70
630,55	35145,19
630,74	35111,91
630,93	35082,22
631,13	35148,78
631,32	35116,52
631,51	35130,34
631,70	34948,07
631,89	34891,24
632,09	34476,02
632,28	34914,80
632,47	35034,09
632,66	34540,53
632,85	34794,48
633,04	34674,16
633,24	34671,60
633,43	34634,74
633,62	34442,23
633,81	34434,55
634,00	34556,40
634,19	34333,68
634,39	34268,66
634,58	34245,11
634,77	34369,01
634,96	34247,16
635,15	34438,64
635,34	34456,05
635,54	34794,99
635,73	34351,60
635,92	34743,79
636,11	34640,37
636,30	34452,47
636,49	34463,22
636,68	34142,71
636,88	34141,69
637,07	34159,09
637,26	33681,92
637,45	33529,86
637,64	33611,26
637,83	33502,21
638,02	33145,86
638,21	33359,87
638,41	33352,20
638,60	33101,32
638,79	32891,40
638,98	33280,52
639,17	33069,06
639,36	32737,80
639,55	32840,71
639,74	32723,47
639,94	32876,55
640,13	32844,30
640,32	32837,64
640,51	32862,22
640,70	32948,75
640,89	32787,98
641,08	32466,45
641,27	32796,17
641,46	32551,44
641,66	32855,05
641,85	32682,51
642,04	32403,99
642,23	32354,83
642,42	32365,07
642,61	32382,99
642,80	32054,29
642,99	31762,97
643,18	31941,14
643,37	31703,58
643,56	31352,87
643,76	31279,14
643,95	31484,96
644,14	30969,90
644,33	31037,48
644,52	30977,58
644,71	30726,70
644,90	30716,46
645,09	30592,56
645,28	30050,36
645,47	30057,53
645,66	30002,23
645,85	29903,93
646,04	29810,23
646,24	29830,20
646,43	29583,93
646,62	29605,95
646,81	29429,82
647,00	29347,90
647,19	29267,01
647,38	29120,58
647,57	29366,85
647,76	29205,06
647,95	29848,12
648,14	29969,46
648,33	29638,72
648,52	29957,69
648,71	30066,23
648,90	29546,56
649,09	29585,98
649,28	29638,72
649,47	29412,93
649,66	29542,46
649,85	29483,58
650,05	29564,48
650,24	29544,00
650,43	29668,92
650,62	29691,96
650,81	29764,15
651,00	29631,04
651,19	29603,90
651,38	29651,52
651,57	29657,15
651,76	29767,74
651,95	29661,76
652,14	29339,71
652,33	29132,36
652,52	28984,90
652,71	28627,53
652,90	28323,41
653,09	27654,75
653,28	26974,82
653,47	26478,19
653,66	25939,57
653,85	25635,96
654,04	25145,98
654,23	25346,69
654,42	25400,96
654,61	25651,32
654,80	25602,68
654,99	25994,87
655,18	26346,61
655,37	27020,39
655,56	27343,97
655,75	27824,22
655,94	27894,36
656,13	28069,46
656,32	28233,81
656,51	28319,82
656,70	28599,88
656,89	28453,97
657,08	28322,38
657,27	28409,93
657,46	28342,35
657,65	28396,62
657,84	28883,02
658,03	28850,76
658,22	28603,98
658,40	28662,86
658,59	28736,59
658,78	28458,06
658,97	28765,77
659,16	29045,83
659,35	28929,09
659,54	28837,45
659,73	29019,21
659,92	28726,35
660,11	28773,96
660,30	28783,18
660,49	28874,82
660,68	28872,26
660,87	28629,58
661,06	28652,11
661,25	28441,68
661,44	28279,89
661,63	28332,11
661,82	28225,62
662,01	28106,32
662,19	28418,64
662,38	28220,50
662,57	28309,58
662,76	28203,09
662,95	28133,97
663,14	28282,96
663,33	28010,07
663,52	28051,03
663,71	28219,47
663,90	27819,10
664,09	28005,97
664,28	27966,55
664,47	28079,70
664,65	28049,49
664,84	27879,00
665,03	27968,09
665,22	28003,41
665,41	27794,52
665,60	27613,27
665,79	28037,20
665,98	27955,80
666,17	27962,97
666,36	27746,39
666,55	27962,97
666,73	27801,69
666,92	27854,93
667,11	27844,18
667,30	27560,03
667,49	27758,17
667,68	27657,82
667,87	27780,70
668,06	27499,10
668,25	27895,89
668,43	27457,63
668,62	27348,06
668,81	27368,54
669,00	27247,71
669,19	26953,83
669,38	27429,98
669,57	26931,30
669,76	27038,82
669,94	27055,20
670,13	27058,28
670,32	26866,28
670,51	27226,21
670,70	27025,51
670,89	27181,67
671,08	27093,60
671,26	26923,11
671,45	26987,11
671,64	26986,60
671,83	26901,61
672,02	26846,82
672,21	26879,08
672,40	26607,72
672,58	26834,02
672,77	26788,97
672,96	26419,82
673,15	26822,25
673,34	26655,34
673,53	26549,87
673,71	26400,88
673,90	26569,32
674,09	26373,23
674,28	26509,42
674,47	26533,48
674,66	26346,09
674,84	26140,79
675,03	26306,67
675,22	26205,81
675,41	26369,65
675,60	26265,71
675,79	26127,99
675,97	26113,14
676,16	26145,91
676,35	26098,80
676,54	26154,61
676,73	25954,93
676,91	25989,75
677,10	25892,98
677,29	25797,24
677,48	25917,56
677,67	25897,08
677,86	25787,51
678,04	25697,40
678,23	25734,78
678,42	25510,01
678,61	25797,24
678,80	25779,83
678,98	25720,44
679,17	25496,19
679,36	25590,39
679,55	25456,25
679,73	25498,75
679,92	25517,18
680,11	25295,49
680,30	25372,80
680,49	25134,21
680,67	25316,48
680,86	25187,46
681,05	25133,18
681,24	25254,01
681,42	24755,33
681,61	24875,65
681,80	24645,26
681,99	24863,36
682,18	24389,77
682,36	24514,19
682,55	24446,60
682,74	24442,51
682,93	24459,40
683,11	24456,84
683,30	24149,65
683,49	24141,97
683,68	23835,80
683,86	23003,81
684,05	22306,48
684,24	21151,42
684,43	20067,02
684,61	18976,48
684,80	17983,21
684,99	17552,63
685,18	17256,18
685,36	17175,80
685,55	17309,94
685,74	17519,86
685,93	17492,73
686,11	17759,98
686,30	17769,71
686,49	17746,67
686,67	17984,24
686,86	17871,09
687,05	18259,18
687,24	18140,40
687,42	18186,47
687,61	18401,51
687,80	18689,76
687,99	18855,65
688,17	19049,18
688,36	19289,31
688,55	19332,82
688,73	19536,09
688,92	19969,74
689,11	19933,90
689,29	20172,49
689,48	20479,18
689,67	20354,25
689,86	20631,24
690,04	20376,78
690,23	20580,55
690,42	20814,02
690,60	20460,74
690,79	20564,17
690,98	20543,17
691,16	20379,34
691,35	20284,11
691,54	20394,70
691,72	20194,51
691,91	20105,42
692,10	20046,03
692,29	20194,51
692,47	20001,49
692,66	20227,79
692,85	20101,84
693,03	20162,76
693,22	20206,28
693,41	20294,86
693,59	20486,34
693,78	20739,78
693,97	20805,83
694,15	20913,34
694,34	21168,32
694,53	21245,63
694,71	21153,98
694,90	21074,11
695,09	21421,75
695,27	21177,02
695,46	21182,14
695,64	21151,93
695,83	20991,68
696,02	20956,35
696,20	20882,11
696,39	20707,52
696,58	20563,14
696,76	20319,43
696,95	20323,53
697,14	20171,47
697,32	20203,21
697,51	19926,74
697,70	19790,03
697,88	19686,61
698,07	19667,16
698,25	19710,16
698,44	19712,21
698,63	19713,75
698,81	19400,41
699,00	19461,34
699,19	19502,81
699,37	19480,28
699,56	19255,51
699,74	19259,61
699,93	19304,15
700,12	19054,30
700,30	19241,69
700,49	19204,31
700,67	19428,06
700,86	19452,12
701,05	19458,26
701,23	19410,14
701,42	19523,29
701,60	19475,16
701,79	19686,10
701,98	19583,19
702,16	19730,64
702,35	19523,80
702,53	19513,56
702,72	19704,53
702,91	19602,64
703,09	19436,25
703,28	19540,69
703,46	19484,37
703,65	19621,59
703,83	19313,88
704,02	19295,45
704,21	19390,17
704,39	19504,85
704,58	19392,22
704,76	19377,37
704,95	19348,18
705,13	19406,55
705,32	19424,47
705,51	19379,93
705,69	19514,58
705,88	19222,75
706,06	19305,18
706,25	19237,59
706,43	19199,20
706,62	19054,30
706,80	19133,15
706,99	19244,76
707,18	19045,09
707,36	19171,55
707,55	19145,44
707,73	19118,81
707,92	19002,59
708,10	19089,12
708,29	18991,33
708,47	19082,97
708,66	19006,69
708,84	18896,10
709,03	18789,09
709,21	18801,89
709,40	18794,72
709,59	18771,17
709,77	18787,55
709,96	18644,20
710,14	18578,15
710,33	18800,35
710,51	18621,16
710,70	18535,65
710,88	18540,26
711,07	18396,39
711,25	18286,31
711,44	18371,82
711,62	18211,56
711,81	18192,62
711,99	18250,47
712,18	18158,31
712,36	18048,75
712,55	17694,45
712,73	17854,19
712,92	17743,60
713,10	17713,39
713,29	17616,63
713,47	17415,93
713,66	17172,73
713,84	17020,67
714,03	16661,76
714,21	16360,20
714,40	15700,24
714,58	15141,14
714,77	14960,92
714,95	14503,20
715,14	14270,76
715,32	13808,94
715,51	13757,74
715,69	13386,04
715,87	13038,91
716,06	12823,87
716,24	12724,03
716,43	12536,13
716,61	12342,60
716,80	12189,51
716,98	12258,12
717,17	12080,46
717,35	11842,89
717,54	11845,96
717,72	11751,76
717,91	11859,79
718,09	12023,11
718,27	12172,10
718,46	12490,05
718,64	12702,53
718,83	13176,63
719,01	13365,04
719,20	13848,36
719,38	14037,29
719,57	14150,44
719,75	14361,89
719,93	14312,23
720,12	14492,96
720,30	14274,34
720,49	14207,78
720,67	13946,16
720,86	13893,42
721,04	13700,91
721,22	13166,39
721,41	13126,46
721,59	12944,19
721,78	12699,45
721,96	12702,53
722,14	12659,52
722,33	12629,31
722,51	12598,59
722,70	12487,49
722,88	12481,86
723,06	12524,86
723,25	12480,83
723,43	12428,10
723,62	12490,56
723,80	12435,78
723,98	12515,65
724,17	12593,47
724,35	12547,90
724,54	12440,39
724,72	12524,35
724,90	12396,35
725,09	12346,18
725,27	12209,99
725,46	12371,78
725,64	12314,44
725,82	12327,75
726,01	12477,76
726,19	12475,71
726,38	12378,95
726,56	12278,08
726,74	12267,84
726,93	12285,76
727,11	12408,64
727,29	12400,96
727,48	12386,12
727,66	12451,65
727,84	12421,44
728,03	12409,15
728,21	12419,91
728,40	12452,67
728,58	12530,50
728,76	12485,95
728,95	12579,65
729,13	12593,98
729,31	12631,36
729,50	12745,53
729,68	12979,00
729,86	13138,74
730,05	13140,79
730,23	13400,37
730,41	13340,47
730,60	13502,26
730,78	13607,73
730,96	13800,24
731,15	13854,00
731,33	13913,90
731,51	14135,08
731,70	14098,22
731,88	14264,61
732,06	14256,42
732,25	14266,66
732,43	14167,34
732,61	14196,52
732,80	14009,13
732,98	14135,59
733,16	14100,78
733,34	13958,44
733,53	13879,60
733,71	13965,61
733,89	13932,33
734,08	13786,93
734,26	13956,40
734,44	13879,08
734,63	13898,03
734,81	13800,24
734,99	13930,28
735,18	14047,53
735,36	13767,98
735,54	13898,54
735,72	14058,28
735,91	13853,48
736,09	13880,11
736,27	13720,88
736,46	13770,03
736,64	13767,47
736,82	13765,93
737,00	13732,65
737,19	13821,74
737,37	13719,85
737,55	13851,44
737,73	13891,37
737,92	13855,02
738,10	13893,93
738,28	13938,99
738,47	13894,44
738,65	13817,13
738,83	13847,34
739,01	13774,13
739,20	13580,59
739,38	13702,45
739,56	13799,21
739,74	13593,90
739,93	13743,41
740,11	13678,90
740,29	13753,13
740,47	13793,58
740,66	13806,38
740,84	13728,05
741,02	13944,11
741,20	13858,09
741,38	13800,24
741,57	13772,59
741,75	13862,19
741,93	13797,17
742,11	13599,02
742,30	13730,09
742,48	13540,66
742,66	13574,96
742,84	13637,42
743,03	13616,43
743,21	13791,02
743,39	13595,95
743,57	13614,90
743,75	13546,80
743,94	13584,18
744,12	13473,59
744,30	13620,53
744,48	13497,65
744,66	13524,27
744,85	13671,22
745,03	13532,98
745,21	13576,50
745,39	13429,56
745,57	13641,52
745,76	13533,49
745,94	13640,50
746,12	13732,65
746,30	13663,54
746,48	13471,03
746,67	13549,36
746,85	13554,48
747,03	13615,41
747,21	13573,94
747,39	13532,98
747,57	13577,01
747,76	13742,38
747,94	13537,07
748,12	13624,11
748,30	13645,10
748,48	13651,25
748,67	13755,18
748,85	13693,74
749,03	13759,28
749,21	13979,43
749,39	13983,02
749,57	13835,56
749,75	14027,05
749,94	14058,28
750,12	14078,25
750,30	14121,26
750,48	14183,72
750,66	14188,33
750,84	14237,48
751,03	14345,51
751,21	14300,97
751,39	14574,37
751,57	14572,83
751,75	14607,65
751,93	14653,73
752,11	14645,02
752,29	14611,23
752,48	14759,71
752,66	14799,65
752,84	14849,82
753,02	14723,36
753,20	14807,84
753,38	14823,71
753,56	14883,61
753,74	14923,04
753,93	14989,60
754,11	14763,29
754,29	15058,71
754,47	15032,09
754,65	14957,34
754,83	15076,63
755,01	15079,71
755,19	14868,77
755,37	15056,15
755,56	14984,48
755,74	14905,12
755,92	14844,19
756,10	14755,10
756,28	14596,39
756,46	14105,90
756,64	13383,99
756,82	12556,61
757,00	11357,01
757,18	10094,95
757,36	8670,08
757,55	7424,40
757,73	6327,20
757,91	5333,42
758,09	4475,32
758,27	3770,82
758,45	3358,16
758,63	3185,62
758,81	3234,25
758,99	3485,13
759,17	3730,38
759,35	4053,44
759,53	4395,96
759,71	4317,12
759,89	4436,92
760,08	4317,63
760,26	4150,21
760,44	4075,97
760,62	3946,95
760,80	3914,69
760,98	3923,40
761,16	3944,39
761,34	3848,13
761,52	4063,68
761,70	4220,86
761,88	4453,82
762,06	4627,39
762,24	4984,76
762,42	5167,54
762,60	5514,16
762,78	5881,25
762,96	6266,27
763,14	6572,96
763,32	6983,57
763,50	7160,72
763,68	7670,67
763,86	7927,18
764,04	8233,35
764,22	8664,44
764,40	9012,09
764,58	9194,87
764,76	9615,21
764,94	9821,55
765,12	10260,84
765,30	10244,96
765,48	10585,44
765,66	10720,09
765,84	11098,97
766,02	11049,30
766,20	11159,38
766,38	11097,94
766,56	11331,92
766,74	11318,61
766,92	11339,60
767,10	11368,27
767,28	11336,53
767,46	11462,48
767,64	11405,14
767,82	11475,79
768,00	11443,54
768,18	11406,67
768,36	11631,95
768,54	11357,01
768,72	11300,69
768,90	11312,47
769,08	11299,16
769,26	11149,14
769,44	11266,90
769,62	11049,30
769,80	11068,25
769,98	11099,99
770,16	10987,86
770,34	10954,07
770,52	10910,04
770,70	10876,25
770,88	10793,82
771,06	10720,09
771,24	10662,24
771,42	10646,88
771,60	10598,24
771,78	10634,08
771,96	10583,39
772,13	10356,58
772,31	10537,31
772,49	10262,37
772,67	10257,76
772,85	10322,27
773,03	10165,09
773,21	10180,45
773,39	10171,24
773,57	10098,02
773,75	10195,30
773,93	10084,20
774,11	10100,07
774,29	9996,65
774,47	9880,43
774,64	9854,31
774,82	9820,01
775,00	9742,70
775,18	9757,55
775,36	9574,77
775,54	9722,73
775,72	9434,99
775,90	9510,25
776,08	9505,65
776,26	9386,35
776,43	9439,09
776,61	9328,50
776,79	9322,35
776,97	9305,46
777,15	9276,79
777,33	9239,92
777,51	9140,60
777,69	9163,12
777,87	9149,30
778,04	8963,96
778,22	8962,42
778,40	8960,38
778,58	8955,26
778,76	8872,31
778,94	8859,51
779,12	8930,17
779,30	8748,92
779,47	8777,08
779,65	8746,36
779,83	8770,43
780,01	8620,41
780,19	8598,40
780,37	8556,41
780,55	8559,49
780,73	8508,29
780,90	8366,46
781,08	8436,61
781,26	8327,55
781,44	8285,57
781,62	8353,15
781,80	8106,37
781,97	8027,01
782,15	8107,40
782,33	8076,16
782,51	7871,37
782,69	8054,15
782,87	7900,04
783,04	7986,05
783,22	7932,81
783,40	7806,86
783,58	7778,70
783,76	7814,54
783,94	7800,71
784,11	7660,43
784,29	7685,51
784,47	7602,06
784,65	7467,92
784,83	7608,72
785,01	7298,45
785,18	7418,25
785,36	7427,98
785,54	7361,94
785,72	7313,81
785,90	7203,22
786,07	7145,36
786,25	7287,18
786,43	7058,84
786,61	6940,05
786,79	7041,43
786,96	6850,97
787,14	6841,24
787,32	6843,80
787,50	6790,55
787,67	6761,37
787,85	6668,70
788,03	6687,13
788,21	6746,52
788,39	6741,40
788,56	6657,43
788,74	6686,11
788,92	6482,85
789,10	6521,24
789,27	6394,78
789,45	6422,43
789,63	6416,80
789,81	6344,61
789,99	6303,65
790,16	6263,71
790,34	6233,50
790,52	6269,34
790,70	6177,70
790,87	6169,51
791,05	6200,23
791,23	6171,55
791,41	6031,78
791,58	6172,07
791,76	6140,83
791,94	6099,87
792,12	6065,57
792,29	6144,42
792,47	6092,20
792,65	6065,06
792,82	5978,53
793,00	6064,04
793,18	5899,69
793,36	5878,18
793,53	5849,51
793,71	5880,74
793,89	5756,33
794,07	5719,98
794,24	5685,16
794,42	5735,34
794,60	5679,02
794,77	5691,31
794,95	5682,60
795,13	5700,52
795,31	5658,54
795,48	5811,62
795,66	5691,82
795,84	5649,32
796,01	5671,34
796,19	5646,25
796,37	5651,37
796,54	5602,73
796,72	5515,69
796,90	5544,88
797,08	5396,91
797,25	5331,37
797,43	5321,13
797,61	5361,58
797,78	5291,44
797,96	5288,88
798,14	5305,78
798,31	5176,24
798,49	5190,06
798,67	5169,07
798,84	5111,22
799,02	5117,36
799,20	5073,84
799,37	5137,33
799,55	5023,16
799,73	5135,79
799,90	5011,38
800,08	4957,11
800,26	4980,15
800,43	5040,05
800,61	4936,12
800,79	4946,87
800,96	4851,64
801,14	4884,92
801,32	4848,57
801,49	4892,09
801,67	4809,65
801,84	4880,31
802,02	4693,94
802,20	4792,25
802,37	4707,77
802,55	4769,72
802,73	4769,72
802,90	4767,67
803,08	4773,82
803,26	4729,78
803,43	4725,69
803,61	4800,95
803,78	4707,26
803,96	4754,87
804,14	4629,43
804,31	4637,11
804,49	4672,95
804,67	4661,69
804,84	4603,83
805,02	4634,55
805,19	4544,95
805,37	4589,50
805,55	4557,75
805,72	4511,16
805,90	4432,83
806,07	4533,69
806,25	4448,19
806,43	4450,75
806,60	4350,91
806,78	4437,95
806,95	4301,25
807,13	4229,57
807,30	4224,96
807,48	4219,84
807,66	4130,75
807,83	4243,39
808,01	4149,18
808,18	4204,48
808,36	4102,08
808,54	4039,62
808,71	4040,64
808,89	3943,88
809,06	4023,75
809,24	3924,42
809,41	3915,20
809,59	3859,40
809,76	3786,69
809,94	3820,49
810,12	3723,72
810,29	3759,05
810,47	3736,52
810,64	3611,08
810,82	3558,86
810,99	3537,35
811,17	3468,75
811,34	3465,68
811,52	3391,44
811,69	3309,01
811,87	3334,61
812,05	3225,55
812,22	3204,56
812,40	3087,31
812,57	3046,87
812,75	3072,98
812,92	2954,71
813,10	2922,96
813,27	2875,35
813,45	2937,81
813,62	2817,49
813,80	2777,05
813,97	2672,09
814,15	2739,67
814,32	2715,09
814,50	2712,53
814,67	2650,07
814,85	2773,97
815,02	2678,23
815,20	2686,42
815,37	2652,63
815,55	2596,31
815,72	2653,66
815,90	2635,74
816,07	2661,85
816,25	2623,45
816,42	2647,51
816,60	2527,19
816,77	2606,04
816,95	2633,18
817,12	2577,88
817,30	2592,73
817,47	2591,70
817,65	2728,41
817,82	2697,17
818,00	2690,01
818,17	2767,32
818,35	2840,02
818,52	2826,20
818,70	2896,34
818,87	2863,06
819,04	2858,45
819,22	2852,82
819,39	2862,04
819,57	2822,10
819,74	2762,20
819,92	2646,49
820,09	2519,00
820,27	2399,71
820,44	2354,65
820,62	2326,49
820,79	2325,47
820,96	2352,60
821,14	2374,62
821,31	2356,19
821,49	2421,72
821,66	2395,10
821,84	2514,39
822,01	2527,19
822,18	2540,51
822,36	2579,93
822,53	2663,90
822,71	2592,73
822,88	2648,02
823,06	2613,72
823,23	2547,67
823,40	2558,42
823,58	2589,14
823,75	2605,53
823,93	2656,73
824,10	2676,18
824,27	2692,05
824,45	2656,73
824,62	2633,18
824,80	2601,43
824,97	2500,57
825,14	2471,39
825,32	2485,21
825,49	2486,23
825,67	2377,69
825,84	2392,54
826,01	2443,23
826,19	2412,51
826,36	2401,76
826,54	2385,88
826,71	2314,20
826,88	2354,14
827,06	2322,40
827,23	2318,81
827,40	2428,38
827,58	2324,96
827,75	2328,03
827,93	2360,28
828,10	2353,63
828,27	2359,26
828,45	2292,19
828,62	2362,84
828,79	2334,17
828,97	2297,31
829,14	2277,85
829,31	2256,35
829,49	2345,44
829,66	2279,39
829,83	2237,41
830,01	2369,50
830,18	2309,08
830,35	2249,69
830,53	2325,47
830,70	2258,40
830,87	2214,37
831,05	2202,08
831,22	2264,03
831,39	2179,55
831,57	2218,46
831,74	2243,04
831,91	2259,93
832,09	2277,34
832,26	2263,01
832,43	2268,64
832,61	2311,64
832,78	2285,02
832,95	2234,33
833,13	2243,55
833,30	2212,83
833,47	2268,64
833,65	2273,25
833,82	2255,33
833,99	2245,09
834,16	2249,18
834,34	2278,37
834,51	2256,35
834,68	2329,56
834,86	2309,08
835,03	2212,83
835,20	2289,12
835,38	2249,18
835,55	2248,16
835,72	2275,81
835,89	2217,95
836,07	2289,12
836,24	2221,53
836,41	2185,69
836,58	2270,69
836,76	2225,12
836,93	2149,86
837,10	2202,59
837,28	2164,19
837,45	2190,81
837,62	2192,35
837,79	2220,00
837,97	2167,26
838,14	2260,96
838,31	2121,70
838,48	2148,32
838,66	2139,62
838,83	2117,09
839,00	2162,66
839,17	2095,58
839,35	2128,35
839,52	2109,92
839,69	2067,94
839,86	2112,99
840,04	2053,60
840,21	2082,27
840,38	2120,16
840,55	2131,42
840,72	2100,70
840,90	2039,78
841,07	2108,38
841,24	2061,79
841,41	2005,47
841,59	2035,17
841,76	2023,91
841,93	2032,10
842,10	1981,41
842,27	2009,06
842,45	1982,43
842,62	1941,47
842,79	2033,63
842,96	1990,63
843,13	1919,97
843,31	1961,44
843,48	1950,69
843,65	1941,47
843,82	2008,03
843,99	1982,95
844,17	1866,72
844,34	1989,60
844,51	1935,84
844,68	1931,75
844,85	1930,72
845,02	1895,40
845,20	1929,19
845,37	1916,39
845,54	1897,96
845,71	1904,61
845,88	1925,60
846,06	1822,18
846,23	1788,90
846,40	1804,26
846,57	1810,92
846,74	1872,87
846,91	1812,45
847,09	1781,22
847,26	1768,93
847,43	1717,73
847,60	1764,84
847,77	1667,56
847,94	1689,06
848,11	1653,22
848,29	1632,74
848,46	1710,05
848,63	1693,67
848,80	1638,89
848,97	1651,17
849,14	1645,03
849,31	1624,04
849,49	1681,89
849,66	1584,62
849,83	1642,47
850,00	1674,21
850,17	1678,82
850,34	1586,66
850,51	1604,07
850,68	1632,74
850,85	1588,71
851,03	1576,94
851,20	1620,97
851,37	1586,15
851,54	1569,26
851,71	1551,85
851,88	1470,95
852,05	1415,15
852,22	1468,91
852,39	1336,30
852,57	1361,90
852,74	1401,83
852,91	1399,79
853,08	1418,73
853,25	1446,38
853,42	1429,48
853,59	1446,89
853,76	1356,78
853,93	1463,27
854,10	1411,05
854,27	1439,21
854,44	1456,11
854,62	1474,54
854,79	1459,69
854,96	1454,06
855,13	1403,88
855,30	1387,50
855,47	1425,90
855,64	1399,79
855,81	1412,59
855,98	1448,43
856,15	1482,73
856,32	1489,90
856,49	1424,36
856,66	1424,36
856,83	1376,24
857,00	1446,89
857,17	1396,71
857,34	1359,85
857,51	1345,00
857,69	1418,73
857,86	1402,86
858,03	1366,51
858,20	1337,32
858,37	1341,93
858,54	1335,79
858,71	1338,86
858,88	1332,20
859,05	1329,13
859,22	1354,22
859,39	1328,11
859,56	1326,57
859,73	1343,98
859,90	1322,99
860,07	1275,88
860,24	1287,66
860,41	1330,67
860,58	1290,22
860,75	1252,33
860,92	1222,64
861,09	1213,93
861,26	1253,36
861,43	1254,38
861,60	1217,52
861,77	1173,49
861,94	1215,47
862,11	1275,37
862,28	1218,03
862,45	1218,03
862,62	1198,06
862,79	1173,49
862,96	1268,72
863,13	1189,87
863,30	1149,42
863,47	1148,91
863,64	1148,40
863,81	1098,74
863,98	1135,09
864,15	1077,23
864,32	1043,95
864,48	1039,86
864,65	1057,78
864,82	1056,75
864,99	1015,28
865,16	1006,06
865,33	980,98
865,50	1041,39
865,67	996,85
865,84	1030,13
866,01	1034,74
866,18	1013,74
866,35	1037,81
866,52	1026,03
866,69	985,07
866,86	1006,06
867,03	979,44
867,20	995,82
867,37	1005,55
867,53	1013,23
867,70	1006,06
867,87	990,70
868,04	986,61
868,21	1006,58
868,38	1016,82
868,55	988,14
868,72	936,95
868,89	1048,05
869,06	986,61
869,23	963,57
869,40	1001,46
869,56	991,73
869,73	983,03
869,90	982,51
870,07	953,33
870,24	907,76
870,41	953,84
870,58	897,01
870,75	915,95
870,92	963,57
871,08	879,09
871,25	944,63
871,42	902,13
871,59	924,15
871,76	932,85
871,93	882,67
872,10	922,61
872,27	905,71
872,43	914,93
872,60	844,28
872,77	798,71
872,94	785,91
873,11	812,02
873,28	839,16
873,45	801,27
873,62	804,85
873,78	855,54
873,95	849,91
874,12	819,19
874,29	765,94
874,46	849,91
874,63	866,29
874,79	738,29
874,96	770,55
875,13	787,96
875,30	770,04
875,47	772,08
875,64	751,09
875,80	756,72
875,97	748,53
876,14	758,26
876,31	755,19
876,48	754,16
876,65	730,61
876,81	724,47
876,98	753,14
877,15	739,83
877,32	749,04
877,49	726,00
877,65	711,16
877,82	695,29
877,99	697,85
878,16	740,34
878,33	697,85
878,49	685,56
878,66	700,92
878,83	651,25
879,00	704,50
879,17	666,61
879,33	717,30
879,50	683,00
879,67	653,81
879,84	654,84
880,01	637,94
880,17	645,11
880,34	672,76
880,51	649,72
880,68	609,27
880,84	669,17
881,01	629,24
881,18	659,96
881,35	646,13
881,52	651,77
881,68	644,60
881,85	603,13
882,02	641,01
882,19	584,18
882,35	586,74
882,52	591,86
882,69	642,55
882,86	571,38
883,02	567,29
883,19	596,47
883,36	574,97
883,53	603,13
883,69	596,98
883,86	603,64
884,03	542,71
884,19	585,21
884,36	523,77
884,53	556,54
884,70	543,22
884,86	552,95
885,03	556,54
885,20	580,09
885,37	514,55
885,53	479,74
885,70	506,87
885,87	537,08
886,03	564,22
886,20	464,38
886,37	511,48
886,54	468,47
886,70	543,74
886,87	503,80
887,04	516,09
887,20	534,52
887,37	496,12
887,54	491,00
887,70	505,34
887,87	431,10
888,04	482,81
888,20	448,51
888,37	496,12
888,54	479,22
888,71	497,66
888,87	452,09
889,04	518,14
889,21	469,50
889,37	432,63
889,54	417,27
889,71	497,66
889,87	440,31
890,04	414,71
890,21	414,71
890,37	414,71
890,54	414,71
890,71	414,71
890,87	414,71
>>>>>End Processed Spectral Data<<<<<
