SpectraSuite Datei
++++++++++++++++++++++++++++++++++++
Datum: Mon Nov 11 16:25:25 CET 2019
Benutzer: user
Dark-Spektrum vorhanden: Ja
Referenz-Spektrum vorhanden: Nein
Zahl der probierten Teilspektren: 1
Spektrometer: USB4F04607
Integrationszeit (usec): 245000 (USB4F04607)
Spektren Durchschnitt berechnet: 16 (USB4F04607)
Boxcar Glättung: 0 (USB4F04607)
Dunkelstromkorrektur: Nein (USB4F04607)
Puls/Lampe aktiviert: Nein (USB4F04607)
Correct for Detector Non-linearity: Nein (USB4F04607)
Streulichtkorrektur: Nein (USB4F04607)
Anzahl Pixel in verarbeitetem Spektrum: 3648
>>>>>Begin Processed Spectral Data<<<<<
177,66	-7,04
177,88	-7,04
178,10	-7,04
178,32	-1,02
178,53	-21,63
178,75	-8,06
178,97	20,22
179,19	-8,96
179,40	7,42
179,62	4,86
179,84	-30,98
180,05	-13,44
180,27	17,41
180,49	23,04
180,71	7,55
180,92	-19,33
181,14	181,50
181,36	274,43
181,58	284,80
181,79	259,20
182,01	273,66
182,23	249,34
182,44	254,33
182,66	263,42
182,88	255,48
183,10	269,44
183,31	283,00
183,53	275,45
183,75	286,84
183,96	278,65
184,18	275,84
184,40	261,76
184,62	244,60
184,83	258,81
185,05	267,39
185,27	259,84
185,48	250,11
185,70	248,06
185,92	260,22
186,14	288,38
186,35	273,15
186,57	270,84
186,79	295,55
187,00	263,93
187,22	268,54
187,44	283,39
187,66	267,13
187,87	255,74
188,09	289,53
188,31	265,21
188,52	264,96
188,74	272,64
188,96	257,92
189,17	265,85
189,39	294,40
189,61	280,96
189,82	268,41
190,04	259,84
190,26	281,47
190,48	268,16
190,69	263,29
190,91	261,12
191,13	261,24
191,34	263,29
191,56	292,73
191,78	247,93
191,99	245,63
192,21	280,19
192,43	270,84
192,64	285,69
192,86	259,32
193,08	265,47
193,29	283,39
193,51	285,44
193,73	289,66
193,94	290,04
194,16	300,80
194,38	278,91
194,60	292,73
194,81	258,17
195,03	297,85
195,25	255,48
195,46	279,55
195,68	277,88
195,90	260,99
196,11	271,48
196,33	264,06
196,55	291,71
196,76	270,46
196,98	287,61
197,20	253,82
197,41	267,00
197,63	270,08
197,85	275,71
198,06	273,02
198,28	283,00
198,50	273,28
198,71	276,35
198,93	269,05
199,14	305,02
199,36	277,76
199,58	256,38
199,79	307,32
200,01	270,20
200,23	251,39
200,44	300,41
200,66	284,16
200,88	271,48
201,09	292,60
201,31	282,36
201,53	313,60
201,74	259,58
201,96	284,03
202,18	258,56
202,39	280,83
202,61	290,81
202,83	254,08
203,04	248,96
203,26	268,80
203,47	289,28
203,69	263,29
203,91	275,07
204,12	295,80
204,34	280,96
204,56	251,64
204,77	256,38
204,99	256,25
205,21	263,16
205,42	277,24
205,64	270,59
205,85	273,28
206,07	280,44
206,29	288,64
206,50	258,43
206,72	287,23
206,94	286,84
207,15	300,67
207,37	247,16
207,58	288,64
207,80	260,09
208,02	280,44
208,23	306,81
208,45	279,68
208,67	304,51
208,88	276,73
209,10	324,22
209,31	270,97
209,53	284,28
209,75	269,05
209,96	316,80
210,18	275,07
210,40	273,53
210,61	270,59
210,83	265,08
211,04	289,79
211,26	277,37
211,48	288,00
211,69	293,50
211,91	315,64
212,12	287,74
212,34	291,20
212,56	266,24
212,77	280,83
212,99	284,54
213,20	247,42
213,42	252,67
213,64	265,47
213,85	298,49
214,07	270,08
214,28	267,26
214,50	291,20
214,72	298,24
214,93	301,69
215,15	292,48
215,36	306,94
215,58	304,12
215,80	266,62
216,01	292,60
216,23	276,99
216,44	251,13
216,66	302,84
216,88	272,25
217,09	310,65
217,31	271,87
217,52	288,89
217,74	306,04
217,95	290,68
218,17	293,37
218,39	279,93
218,60	284,16
218,82	301,56
219,03	282,75
219,25	290,17
219,47	277,50
219,68	304,12
219,90	301,31
220,11	298,49
220,33	303,87
220,54	284,80
220,76	308,09
220,98	279,29
221,19	311,80
221,41	285,05
221,62	273,79
221,84	303,87
222,05	295,93
222,27	284,54
222,48	317,05
222,70	313,85
222,92	275,58
223,13	277,24
223,35	301,69
223,56	284,41
223,78	282,11
223,99	253,69
224,21	305,40
224,43	302,46
224,64	297,72
224,86	308,48
225,07	299,26
225,29	301,56
225,50	304,76
225,72	307,84
225,93	301,05
226,15	321,02
226,37	311,04
226,58	332,79
226,80	345,59
227,01	354,43
227,23	396,15
227,44	381,18
227,66	371,58
227,87	400,38
228,09	407,03
228,30	354,30
228,52	366,20
228,74	298,36
228,95	311,16
229,17	293,37
229,38	312,19
229,60	292,60
229,81	319,74
230,03	305,53
230,24	278,27
230,46	321,15
230,67	313,72
230,89	319,61
231,10	323,07
231,32	299,26
231,53	348,67
231,75	341,24
231,97	355,71
232,18	387,07
232,40	381,56
232,61	430,07
232,83	420,22
233,04	451,83
233,26	484,73
233,47	530,68
233,69	551,03
233,90	534,52
234,12	573,82
234,33	581,88
234,55	580,34
234,76	559,48
234,98	614,90
235,19	579,58
235,41	605,94
235,62	590,71
235,84	648,31
236,05	631,41
236,27	646,90
236,48	620,66
236,70	671,22
236,91	685,56
237,13	666,74
237,34	680,31
237,56	682,74
237,77	680,44
237,99	685,43
238,20	694,52
238,42	715,64
238,63	696,57
238,85	721,52
239,06	703,99
239,28	679,41
239,49	716,53
239,71	702,84
239,92	692,09
240,14	695,41
240,35	741,11
240,57	731,51
240,78	726,77
241,00	718,84
241,21	703,99
241,43	736,50
241,64	719,35
241,86	737,01
242,07	760,31
242,29	757,11
242,50	781,17
242,72	776,31
242,93	751,22
243,15	775,67
243,36	756,85
243,58	761,33
243,79	774,39
244,01	780,53
244,22	786,29
244,44	785,01
244,65	764,28
244,87	807,80
245,08	815,99
245,29	811,00
245,51	847,99
245,72	837,62
245,94	819,70
246,15	834,16
246,37	812,53
246,58	835,06
246,80	844,02
247,01	864,88
247,23	863,47
247,44	844,15
247,66	880,63
247,87	845,56
248,09	891,51
248,30	860,79
248,51	830,32
248,73	865,14
248,94	864,88
249,16	894,83
249,37	857,59
249,59	861,55
249,80	835,57
250,02	843,38
250,23	855,79
250,45	830,07
250,66	851,95
250,87	851,44
251,09	844,53
251,30	863,86
251,52	845,43
251,73	854,77
251,95	834,29
252,16	844,02
252,38	856,31
252,59	842,23
252,80	858,99
253,02	827,51
253,23	829,81
253,45	835,70
253,66	822,39
253,88	839,03
254,09	827,51
254,30	803,44
254,52	816,50
254,73	797,17
254,95	791,67
255,16	816,37
255,38	819,19
255,59	828,28
255,80	823,41
256,02	802,68
256,23	831,99
256,45	841,33
256,66	817,78
256,88	841,97
257,09	823,92
257,30	807,03
257,52	817,78
257,73	824,95
257,95	830,71
258,16	795,51
258,38	805,24
258,59	788,85
258,80	789,62
259,02	810,10
259,23	794,61
259,45	782,32
259,66	826,10
259,87	794,10
260,09	792,44
260,30	829,68
260,52	815,99
260,73	844,28
260,94	860,79
261,16	819,44
261,37	827,64
261,59	805,88
261,80	821,49
262,01	834,42
262,23	832,37
262,44	828,66
262,66	830,84
262,87	808,31
263,08	810,61
263,30	804,08
263,51	814,71
263,73	839,54
263,94	840,18
264,15	839,16
264,37	865,01
264,58	844,40
264,80	835,44
265,01	842,10
265,22	842,61
265,44	860,66
265,65	873,71
265,86	855,15
266,08	854,26
266,29	851,44
266,51	840,69
266,72	823,92
266,93	841,33
267,15	822,13
267,36	844,15
267,58	851,70
267,79	855,15
268,00	843,89
268,22	858,99
268,43	850,42
268,64	846,07
268,86	827,00
269,07	828,92
269,28	815,73
269,50	826,10
269,71	774,52
269,93	788,72
270,14	743,16
270,35	718,97
270,57	704,12
270,78	652,02
270,99	588,79
271,21	569,98
271,42	511,99
271,63	467,32
271,85	404,09
272,06	410,87
272,28	378,36
272,49	382,59
272,70	361,47
272,92	328,06
273,13	339,58
273,34	332,28
273,56	309,37
273,77	326,01
273,98	323,58
274,20	326,91
274,41	328,70
274,62	323,32
274,84	350,97
275,05	353,15
275,26	362,36
275,48	332,54
275,69	349,82
275,90	303,36
276,12	336,63
276,33	341,50
276,54	347,51
276,76	323,58
276,97	342,78
277,18	327,93
277,40	325,63
277,61	351,48
277,82	362,11
278,04	334,20
278,25	318,46
278,46	343,80
278,68	335,10
278,89	332,41
279,10	330,23
279,32	318,72
279,53	333,05
279,74	309,50
279,96	349,82
280,17	329,47
280,38	342,91
280,60	349,56
280,81	384,51
281,02	414,71
281,24	470,90
281,45	544,25
281,66	625,27
281,88	680,82
282,09	756,72
282,30	688,37
282,52	594,42
282,73	507,90
282,94	409,34
283,15	381,31
283,37	353,66
283,58	357,50
283,79	340,09
284,01	337,02
284,22	348,15
284,43	341,11
284,65	323,45
284,86	331,51
285,07	339,58
285,28	342,91
285,50	329,59
285,71	338,43
285,92	362,75
286,14	311,80
286,35	342,78
286,56	346,11
286,77	346,11
286,99	339,07
287,20	334,33
287,41	331,51
287,63	315,13
287,84	336,38
288,05	354,30
288,27	348,67
288,48	377,08
288,69	366,33
288,90	339,58
289,12	351,99
289,33	357,11
289,54	359,67
289,75	335,35
289,97	352,76
290,18	367,61
290,39	375,55
290,61	343,67
290,82	301,31
291,03	333,05
291,24	318,33
291,46	365,31
291,67	352,38
291,88	336,25
292,09	311,68
292,31	349,95
292,52	361,59
292,73	353,27
292,95	386,43
293,16	352,25
293,37	367,35
293,58	356,73
293,80	369,40
294,01	330,62
294,22	340,86
294,43	348,54
294,65	378,49
294,86	345,59
295,07	377,34
295,28	388,86
295,50	345,85
295,71	361,08
295,92	356,73
296,13	352,38
296,35	371,07
296,56	368,12
296,77	355,96
296,98	370,17
297,20	375,80
297,41	368,89
297,62	371,19
297,83	344,95
298,05	367,23
298,26	374,52
298,47	358,65
298,68	363,39
298,89	379,64
299,11	364,92
299,32	355,96
299,53	372,99
299,74	363,26
299,96	371,32
300,17	384,51
300,38	374,52
300,59	375,55
300,81	370,94
301,02	426,87
301,23	459,51
301,44	484,09
301,65	558,84
301,87	683,38
302,08	774,90
302,29	831,60
302,50	831,48
302,72	698,49
302,93	614,01
303,14	512,50
303,35	488,44
303,56	439,80
303,78	435,58
303,99	441,98
304,20	399,87
304,41	378,11
304,62	390,52
304,84	398,84
305,05	409,59
305,26	421,50
305,47	435,07
305,68	450,68
305,90	420,60
306,11	427,90
306,32	415,87
306,53	427,51
306,74	457,21
306,96	441,08
307,17	446,59
307,38	429,43
307,59	458,62
307,80	445,43
308,02	449,91
308,23	445,18
308,44	409,98
308,65	449,66
308,86	452,73
309,08	424,31
309,29	412,92
309,50	465,53
309,71	447,87
309,92	478,58
310,13	448,38
310,35	427,00
310,56	485,50
310,77	466,17
310,98	468,22
311,19	471,42
311,41	438,39
311,62	463,61
311,83	477,69
312,04	507,26
312,25	469,50
312,46	479,74
312,68	467,45
312,89	474,62
313,10	529,78
313,31	527,74
313,52	501,37
313,73	526,33
313,95	502,01
314,16	491,51
314,37	528,63
314,58	530,81
314,79	550,39
315,00	547,32
315,22	561,14
315,43	558,20
315,64	583,67
315,85	567,16
316,06	575,35
316,27	568,57
316,48	609,65
316,70	568,31
316,91	582,65
317,12	590,84
317,33	601,46
317,54	597,62
317,75	601,72
317,97	588,66
318,18	612,85
318,39	626,81
318,60	654,45
318,81	663,67
319,02	678,26
319,23	687,73
319,45	712,31
319,66	722,16
319,87	725,62
320,08	737,91
320,29	766,20
320,50	810,48
320,71	828,40
320,92	826,36
321,14	867,31
321,35	907,63
321,56	936,43
321,77	947,44
321,98	930,93
322,19	1010,54
322,40	1021,55
322,61	1054,32
322,83	1080,43
323,04	1092,34
323,25	1166,96
323,46	1176,43
323,67	1213,93
323,88	1240,43
324,09	1332,46
324,30	1377,64
324,52	1476,20
324,73	1531,75
324,94	1585,64
325,15	1660,65
325,36	1753,45
325,57	1835,24
325,78	2016,35
325,99	2205,41
326,20	2622,17
326,41	3462,35
326,63	5580,07
326,84	9459,18
327,05	17548,15
327,26	31835,55
327,47	58100,49
327,68	63751,09
327,89	63486,14
328,10	63621,69
328,31	63683,12
328,52	63648,05
328,74	63609,27
328,95	63802,55
329,16	39130,54
329,37	9971,05
329,58	6312,35
329,79	4356,29
330,00	3260,49
330,21	2603,86
330,42	2285,41
330,63	2041,82
330,84	1894,88
331,06	1807,84
331,27	1740,77
331,48	1629,42
331,69	1581,67
331,90	1475,43
332,11	1433,19
332,32	1405,16
332,53	1320,56
332,74	1271,53
332,95	1232,49
333,16	1185,65
333,37	1156,85
333,58	1111,92
333,79	1076,59
334,01	1046,90
334,22	1020,53
334,43	1033,71
334,64	971,89
334,85	948,21
335,06	950,39
335,27	922,23
335,48	936,95
335,69	899,70
335,90	883,44
336,11	883,95
336,32	888,18
336,53	882,55
336,74	872,43
336,95	838,39
337,16	845,81
337,37	825,33
337,59	797,17
337,80	836,34
338,01	802,55
338,22	806,26
338,43	789,88
338,64	777,59
338,85	757,62
339,06	737,14
339,27	768,24
339,48	766,20
339,69	762,48
339,90	774,39
340,11	765,56
340,32	785,91
340,53	804,47
340,74	760,31
340,95	737,27
341,16	731,38
341,37	724,34
341,58	729,72
341,79	701,43
342,00	702,45
342,21	700,92
342,42	716,53
342,63	734,96
342,84	715,89
343,05	703,35
343,26	729,46
343,48	718,20
343,69	705,65
343,90	712,18
344,11	752,12
344,32	681,33
344,53	701,43
344,74	691,32
344,95	669,30
345,16	657,01
345,37	691,06
345,58	693,62
345,79	673,65
346,00	698,87
346,21	642,04
346,42	691,57
346,63	673,91
346,84	672,89
347,05	676,60
347,26	682,61
347,47	709,75
347,68	670,58
347,89	650,61
348,10	686,84
348,31	699,00
348,52	705,53
348,73	682,74
348,94	680,57
349,15	673,91
349,36	680,18
349,57	690,42
349,78	665,72
349,99	668,66
350,20	689,78
350,41	681,97
350,62	623,73
350,83	690,55
351,04	692,21
351,25	694,77
351,45	697,85
351,66	683,38
351,87	694,52
352,08	699,64
352,29	724,21
352,50	739,32
352,71	769,91
352,92	784,12
353,13	815,48
353,34	795,51
353,55	814,20
353,76	806,64
353,97	765,81
354,18	800,12
354,39	781,17
354,60	776,05
354,81	752,88
355,02	756,60
355,23	719,99
355,44	691,32
355,65	731,51
355,86	751,99
356,07	797,68
356,28	818,93
356,49	867,06
356,70	921,59
356,91	933,36
357,12	918,64
357,32	884,72
357,53	794,48
357,74	802,68
357,95	781,81
358,16	753,78
358,37	749,56
358,58	756,98
358,79	734,45
359,00	705,53
359,21	731,25
359,42	708,34
359,63	704,89
359,84	737,40
360,05	716,15
360,26	738,42
360,47	749,43
360,68	749,30
360,88	761,46
361,09	776,18
361,30	748,92
361,51	762,61
361,72	715,51
361,93	767,73
362,14	753,65
362,35	763,89
362,56	743,54
362,77	769,65
362,98	757,36
363,19	765,81
363,40	728,69
363,60	713,97
363,81	718,33
364,02	740,72
364,23	729,08
364,44	756,98
364,65	733,81
364,86	754,16
365,07	766,45
365,28	764,66
365,49	734,07
365,70	780,02
365,91	752,12
366,11	754,68
366,32	761,84
366,53	763,25
366,74	767,86
366,95	762,48
367,16	768,63
367,37	756,98
367,58	772,98
367,79	769,65
368,00	755,57
368,20	758,52
368,41	768,88
368,62	758,00
368,83	786,29
369,04	769,01
369,25	757,88
369,46	754,29
369,67	759,28
369,88	765,56
370,08	753,40
370,29	744,18
370,50	746,36
370,71	751,09
370,92	760,05
371,13	770,55
371,34	747,25
371,55	779,12
371,75	764,40
371,96	780,53
372,17	779,00
372,38	761,84
372,59	772,72
372,80	782,20
373,01	759,41
373,22	766,84
373,42	753,40
373,63	744,56
373,84	751,99
374,05	785,52
374,26	774,00
374,47	777,08
374,68	743,67
374,88	748,53
375,09	769,01
375,30	743,67
375,51	778,48
375,72	749,43
375,93	766,20
376,14	780,79
376,34	732,15
376,55	743,80
376,76	747,12
376,97	755,57
377,18	757,36
377,39	758,64
377,59	744,31
377,80	749,56
378,01	704,89
378,22	747,89
378,43	708,60
378,64	729,59
378,85	723,44
379,05	739,83
379,26	743,28
379,47	724,47
379,68	729,08
379,89	737,52
380,10	682,23
380,30	760,18
380,51	742,26
380,72	771,83
380,93	756,72
381,14	780,28
381,34	762,48
381,55	796,40
381,76	753,40
381,97	728,69
382,18	762,10
382,39	747,12
382,59	734,20
382,80	733,43
383,01	725,88
383,22	748,02
383,43	729,08
383,63	739,06
383,84	741,88
384,05	696,57
384,26	726,13
384,47	795,25
384,68	729,72
384,88	755,57
385,09	755,70
385,30	735,22
385,51	716,66
385,72	758,52
385,92	726,64
386,13	735,09
386,34	729,72
386,55	723,57
386,76	769,78
386,96	748,15
387,17	753,27
387,38	767,48
387,59	807,03
387,79	755,96
388,00	758,26
388,21	737,78
388,42	780,15
388,63	784,12
388,83	745,33
389,04	783,48
389,25	781,30
389,46	779,00
389,67	807,80
389,87	808,44
390,08	851,19
390,29	806,13
390,50	845,17
390,70	823,03
390,91	812,28
391,12	825,33
391,33	812,15
391,53	874,10
391,74	930,67
391,95	1063,54
392,16	1159,02
392,37	1243,25
392,57	1264,36
392,78	1262,83
392,99	1133,81
393,20	1024,37
393,40	905,59
393,61	875,51
393,82	835,32
394,03	808,82
394,23	819,57
394,44	801,78
394,65	790,26
394,86	805,49
395,06	771,06
395,27	777,20
395,48	783,48
395,69	787,19
395,89	752,50
396,10	798,84
396,31	806,00
396,52	819,32
396,72	779,12
396,93	802,42
397,14	801,40
397,35	797,81
397,55	806,52
397,76	806,90
397,97	772,34
398,18	794,23
398,38	796,79
398,59	781,17
398,80	823,16
399,00	793,46
399,21	831,60
399,42	833,78
399,63	819,19
399,83	847,60
400,04	799,22
400,25	863,86
400,46	857,33
400,66	841,84
400,87	871,92
401,08	897,01
401,28	1006,96
401,49	1162,22
401,70	1316,46
401,91	1444,97
402,11	1509,61
402,32	1442,54
402,53	1344,36
402,73	1182,32
402,94	1048,43
403,15	940,91
403,35	919,79
403,56	882,93
403,77	876,79
403,98	880,50
404,18	817,52
404,39	837,62
404,60	823,80
404,80	809,97
405,01	839,92
405,22	847,73
405,42	829,43
405,63	852,08
405,84	861,55
406,05	877,04
406,25	881,39
406,46	899,70
406,67	920,31
406,87	922,99
407,08	924,53
407,29	966,13
407,49	897,01
407,70	894,32
407,91	891,76
408,11	861,94
408,32	898,93
408,53	884,98
408,73	879,73
408,94	849,52
409,15	865,65
409,35	861,81
409,56	851,19
409,77	894,71
409,97	849,78
410,18	890,61
410,39	889,20
410,59	922,23
410,80	870,51
411,01	905,71
411,21	879,73
411,42	919,41
411,63	913,27
411,83	908,79
412,04	954,74
412,25	1122,67
412,45	1378,67
412,66	1871,33
412,87	2561,24
413,07	3502,92
413,28	4186,30
413,49	4610,23
413,69	4457,53
413,90	3993,16
414,11	3114,83
414,31	2366,56
414,52	1793,25
414,72	1474,54
414,93	1385,71
415,14	1331,95
415,34	1411,31
415,55	1549,67
415,76	1711,46
415,96	1890,92
416,17	2108,77
416,38	2392,67
416,58	2780,63
416,79	3321,93
416,99	4012,87
417,20	4835,64
417,41	5434,93
417,61	5475,50
417,82	5116,21
418,03	4415,93
418,23	3336,40
418,44	2320,86
418,64	1682,92
418,85	1395,82
419,06	1185,65
419,26	1119,98
419,47	1068,66
419,67	1005,04
419,88	999,66
420,09	948,59
420,29	961,01
420,50	986,22
420,71	981,23
420,91	983,15
421,12	987,76
421,32	1018,22
421,53	1036,78
421,74	1052,40
421,94	1107,95
422,15	1143,28
422,35	1201,01
422,56	1320,04
422,77	1460,46
422,97	1658,85
423,18	1929,70
423,38	2201,57
423,59	2353,63
423,80	2491,61
424,00	2569,30
424,21	2749,65
424,41	2738,26
424,62	2771,03
424,82	2628,44
425,03	2435,42
425,24	2117,47
425,44	1743,08
425,65	1451,88
425,85	1267,95
426,06	1153,39
426,26	1123,05
426,47	1134,06
426,68	1197,68
426,88	1298,28
427,09	1521,13
427,29	1705,57
427,50	1796,45
427,70	1812,07
427,91	1730,41
428,12	1577,96
428,32	1337,07
428,53	1162,99
428,73	1118,19
428,94	1095,66
429,14	1094,77
429,35	1100,53
429,56	1143,92
429,76	1212,78
429,97	1287,79
430,17	1428,71
430,38	1700,33
430,58	1902,69
430,79	2146,02
430,99	2195,55
431,20	2197,73
431,40	2084,45
431,61	1860,96
431,82	1690,73
432,02	1551,85
432,23	1480,68
432,43	1391,47
432,64	1237,36
432,84	1196,65
433,05	1082,74
433,25	1058,67
433,46	1021,81
433,66	1014,00
433,87	1039,98
434,07	1011,44
434,28	1002,86
434,49	1009,52
434,69	1033,58
434,90	1004,40
435,10	1027,31
435,31	1073,90
435,51	997,74
435,72	1065,20
435,92	1100,78
436,13	1172,72
436,33	1205,23
436,54	1288,30
436,74	1335,79
436,95	1338,99
437,15	1263,98
437,36	1232,75
437,56	1147,25
437,77	1074,93
437,97	1026,80
438,18	1037,81
438,38	1023,73
438,59	1038,32
438,79	1016,56
439,00	1031,15
439,20	1050,35
439,41	1078,51
439,61	1093,23
439,82	1096,56
440,02	1104,11
440,23	1118,32
440,43	1104,24
440,64	1080,43
440,84	1065,07
441,05	1048,94
441,25	1039,47
441,46	1041,65
441,66	1037,17
441,87	1012,85
442,07	1062,00
442,28	1067,89
442,48	1073,90
442,69	1028,21
442,89	1051,38
443,10	1097,07
443,30	1085,17
443,51	1084,40
443,71	1100,40
443,92	1067,50
444,12	1096,56
444,32	1084,91
444,53	1097,07
444,73	1079,41
444,94	1104,37
445,14	1092,98
445,35	1115,50
445,55	1079,92
445,76	1116,78
445,96	1144,69
446,17	1118,19
446,37	1313,90
446,58	1444,46
446,78	1663,85
446,98	1803,11
447,19	1857,25
447,39	1901,67
447,60	1883,88
447,80	1750,50
448,01	1697,64
448,21	1627,88
448,42	1640,04
448,62	1627,37
448,82	1608,81
449,03	1531,62
449,23	1486,57
449,44	1413,35
449,64	1376,36
449,85	1324,40
450,05	1305,58
450,26	1269,23
450,46	1228,65
450,66	1181,68
450,87	1236,46
451,07	1227,76
451,28	1235,31
451,48	1261,55
451,69	1282,80
451,89	1327,98
452,09	1290,22
452,30	1305,45
452,50	1301,74
452,71	1251,44
452,91	1275,12
453,12	1229,42
453,32	1208,17
453,52	1213,04
453,73	1232,88
453,93	1242,22
454,14	1176,81
454,34	1225,71
454,54	1219,44
454,75	1215,98
454,95	1214,45
455,16	1224,30
455,36	1173,36
455,56	1186,16
455,77	1220,72
455,97	1219,44
456,18	1225,84
456,38	1290,73
456,58	1329,77
456,79	1387,75
456,99	1438,70
457,20	1461,61
457,40	1449,83
457,60	1439,85
457,81	1412,97
458,01	1343,34
458,22	1310,96
458,42	1304,68
458,62	1244,14
458,83	1222,51
459,03	1210,86
459,23	1238,00
459,44	1222,25
459,64	1260,14
459,85	1276,91
460,05	1279,85
460,25	1309,80
460,46	1283,95
460,66	1312,36
460,86	1284,46
461,07	1312,75
461,27	1289,71
461,48	1302,25
461,68	1331,44
461,88	1310,70
462,09	1312,24
462,29	1307,50
462,49	1330,80
462,70	1349,74
462,90	1437,93
463,10	1607,91
463,31	1902,31
463,51	2445,40
463,72	3134,42
463,92	3836,61
464,12	4421,56
464,33	4812,98
464,53	4807,73
464,73	4357,05
464,94	3672,78
465,14	2917,59
465,34	2282,21
465,55	1908,32
465,75	1601,13
465,95	1482,47
466,16	1414,38
466,36	1381,10
466,56	1365,74
466,77	1390,57
466,97	1413,87
467,17	1494,76
467,38	1562,86
467,58	1576,42
467,78	1575,66
467,99	1588,07
468,19	1564,65
468,39	1540,33
468,60	1461,10
468,80	1450,47
469,00	1424,49
469,21	1423,47
469,41	1426,41
469,61	1432,30
469,82	1435,50
470,02	1425,39
470,22	1436,78
470,42	1393,13
470,63	1446,38
470,83	1454,95
471,03	1486,57
471,24	1533,80
471,44	1598,95
471,64	1727,08
471,85	1895,14
472,05	2151,52
472,25	2304,22
472,46	2580,70
472,66	2688,73
472,86	2630,74
473,06	2477,79
473,27	2290,53
473,47	2018,02
473,67	1866,72
473,88	1748,97
474,08	1646,57
474,28	1613,93
474,48	1585,26
474,69	1576,30
474,89	1629,16
475,09	1580,01
475,30	1605,22
475,50	1613,29
475,70	1673,83
475,90	1662,95
476,11	1651,30
476,31	1692,90
476,51	1685,86
476,72	1701,09
476,92	1707,11
477,12	1679,33
477,32	1712,74
477,53	1689,19
477,73	1688,93
477,93	1704,42
478,13	1711,08
478,34	1711,85
478,54	1731,81
478,74	1809,38
478,94	1790,82
479,15	1778,53
479,35	1747,17
479,55	1749,99
479,75	1748,84
479,96	1804,39
480,16	1798,24
480,36	1810,28
480,57	1851,36
480,77	1867,24
480,97	1869,54
481,17	1884,13
481,37	1877,99
481,58	1877,09
481,78	1912,93
481,98	1874,02
482,18	1896,42
482,39	1898,47
482,59	1861,48
482,79	1871,97
482,99	1874,15
483,20	1864,16
483,40	1878,12
483,60	1915,62
483,80	1902,56
484,01	1953,63
484,21	1971,17
484,41	1996,64
484,61	2024,03
484,81	2056,67
485,02	2078,82
485,22	2096,74
485,42	2122,08
485,62	2145,76
485,83	2162,53
486,03	2173,66
486,23	2253,66
486,43	2277,60
486,63	2284,64
486,84	2260,06
487,04	2195,29
487,24	2227,55
487,44	2118,88
487,64	2089,57
487,85	2083,68
488,05	2040,80
488,25	2006,37
488,45	2034,14
488,65	2045,66
488,86	2030,05
489,06	2085,60
489,26	2113,76
489,46	2149,73
489,66	2138,34
489,87	2163,42
490,07	2174,94
490,27	2207,84
490,47	2278,37
490,67	2287,20
490,88	2326,62
491,08	2387,93
491,28	2383,45
491,48	2394,84
491,68	2367,96
491,88	2358,36
492,09	2356,32
492,29	2376,41
492,49	2397,66
492,69	2413,40
492,89	2445,66
493,09	2435,80
493,30	2468,44
493,50	2497,75
493,70	2576,60
493,90	2657,75
494,10	3014,74
494,30	4146,88
494,51	6368,67
494,71	10482,91
494,91	16483,97
495,11	24305,04
495,31	32830,99
495,51	39910,94
495,72	43709,03
495,92	43480,30
496,12	39323,56
496,32	31695,77
496,52	23582,23
496,72	15941,77
496,92	10705,50
497,13	7374,61
497,33	5561,39
497,53	4422,33
497,73	3791,43
497,93	3361,74
498,13	3146,32
498,33	2928,34
498,54	2875,22
498,74	2806,74
498,94	2724,05
499,14	2703,96
499,34	2682,58
499,54	2609,11
499,74	2626,01
499,94	2633,18
500,15	2607,45
500,35	2619,35
500,55	2629,08
500,75	2629,08
500,95	2601,56
501,15	2601,05
501,35	2564,06
501,55	2596,18
501,76	2612,95
501,96	2649,30
502,16	2705,37
502,36	2722,26
502,56	2719,19
502,76	2716,89
502,96	2813,40
503,16	2805,08
503,36	2790,87
503,57	2758,61
503,77	2722,65
503,97	2700,63
504,17	2674,78
504,37	2663,00
504,57	2613,59
504,77	2649,56
504,97	2641,37
505,17	2644,70
505,37	2659,29
505,57	2656,09
505,78	2681,69
505,98	2776,28
506,18	2765,53
506,38	2795,48
506,58	2787,29
506,78	2844,24
506,98	2841,30
507,18	2903,64
507,38	2944,21
507,58	2939,73
507,78	2934,48
507,98	2968,53
508,19	2962,77
508,39	2961,49
508,59	2951,38
508,79	2919,00
508,99	2951,76
509,19	2913,62
509,39	2878,42
509,59	2931,03
509,79	2920,53
509,99	2905,68
510,19	2930,64
510,39	2950,61
510,59	2952,02
510,79	3004,11
510,99	3014,35
511,19	3185,62
511,39	3655,88
511,60	4351,04
511,80	5689,39
512,00	7690,12
512,20	9992,42
512,40	12448,07
512,60	14442,79
512,80	15374,23
513,00	15407,64
513,20	13931,95
513,40	11837,90
513,60	9580,01
513,80	7435,79
514,00	5914,41
514,20	4892,47
514,40	4273,21
514,60	3819,72
514,80	3553,74
515,00	3412,68
515,20	3344,08
515,40	3407,18
515,60	3373,39
515,80	3422,92
516,00	3567,05
516,20	3622,22
516,40	3673,29
516,60	3713,48
516,80	3620,42
517,00	3497,03
517,20	3509,58
517,40	3477,71
517,60	3415,37
517,80	3377,23
518,00	3401,80
518,20	3402,57
518,40	3373,00
518,60	3367,24
518,80	3437,90
519,00	3477,71
519,20	3532,23
519,40	3602,63
519,60	3661,51
519,80	3696,97
520,00	3737,16
520,20	3714,89
520,40	3638,47
520,60	3630,79
520,80	3586,76
521,00	3557,96
521,20	3528,52
521,40	3514,19
521,60	3571,91
521,80	3575,37
522,00	3641,16
522,20	3667,40
522,40	3674,70
522,60	3687,50
522,80	3758,02
523,00	3756,87
523,20	3777,22
523,40	3716,42
523,60	3696,07
523,80	3655,75
524,00	3680,58
524,20	3674,44
524,40	3650,50
524,60	3663,56
524,80	3694,92
525,00	3629,64
525,20	3721,54
525,40	3712,46
525,60	3738,82
525,80	3775,05
526,00	3831,62
526,20	3829,45
526,40	3865,41
526,60	3820,49
526,79	3852,87
526,99	3910,60
527,19	3929,67
527,39	3969,22
527,59	3997,12
527,79	3991,62
527,99	4015,17
528,19	4084,93
528,39	4116,29
528,59	4080,96
528,79	4108,35
528,99	4077,38
529,19	4120,77
529,39	4049,86
529,59	4071,75
529,79	4130,37
529,98	4145,86
530,18	4133,44
530,38	4158,02
530,58	4121,28
530,78	4158,53
530,98	4188,86
531,18	4197,18
531,38	4210,24
531,58	4214,46
531,78	4186,82
531,98	4193,98
532,18	4150,08
532,37	4127,30
532,57	4149,95
532,77	4199,49
532,97	4220,86
533,17	4221,63
533,37	4251,71
533,57	4262,46
533,77	4245,70
533,97	4215,23
534,17	4276,80
534,37	4275,65
534,56	4345,79
534,76	4419,13
534,96	4421,44
535,16	4534,46
535,36	4557,37
535,56	4612,54
535,76	4639,16
535,96	4633,79
536,16	4685,62
536,35	4734,78
536,55	4793,78
536,75	4871,35
536,95	4873,40
537,15	4973,11
537,35	4985,27
537,55	5028,28
537,75	5015,86
537,94	5036,60
538,14	5028,92
538,34	5033,78
538,54	5074,10
538,74	5024,95
538,94	4970,04
539,14	5048,50
539,34	5046,58
539,53	5027,12
539,73	5085,87
539,93	5216,05
540,13	5189,42
540,33	5263,66
540,53	5296,30
540,73	5387,82
540,92	5464,75
541,12	5468,46
541,32	5518,89
541,52	5656,36
541,72	5766,44
541,92	5896,49
542,11	5971,88
542,31	6108,19
542,51	6227,87
542,71	6292,26
542,91	6318,11
543,11	6311,46
543,30	6352,67
543,50	6340,00
543,70	6271,39
543,90	6262,56
544,10	6338,21
544,30	6363,17
544,49	6458,27
544,69	6523,55
544,89	6588,83
545,09	6584,09
545,29	6592,67
545,49	6714,52
545,68	6880,92
545,88	6934,68
546,08	7147,79
546,28	7439,25
546,48	7770,38
546,67	7885,83
546,87	8087,94
547,07	8076,80
547,27	8125,83
547,47	8073,99
547,67	7954,95
547,86	7908,36
548,06	7953,41
548,26	8117,25
548,46	8217,99
548,66	8418,94
548,85	8552,83
549,05	8753,40
549,25	8949,62
549,45	9236,85
549,65	9288,05
549,84	9481,46
550,04	9604,21
550,24	9658,60
550,44	9741,55
550,63	9893,87
550,83	9849,58
551,03	9906,41
551,23	9908,71
551,43	10008,30
551,62	10153,57
551,82	10182,50
552,02	10415,46
552,22	10568,41
552,41	10710,49
552,61	10989,66
552,81	11209,30
553,01	11549,52
553,21	11744,97
553,40	12021,45
553,60	12132,17
553,80	12321,48
554,00	12282,95
554,19	12476,74
554,39	12526,78
554,59	12761,79
554,79	12927,29
554,98	12916,41
555,18	12998,33
555,38	13106,36
555,58	13211,57
555,77	13364,02
555,97	13575,60
556,17	13855,53
556,37	13969,19
556,56	14315,94
556,76	14451,88
556,96	14738,34
557,16	14941,08
557,35	15314,20
557,55	15468,44
557,75	16116,62
557,95	16320,52
558,14	16515,72
558,34	16666,11
558,54	16681,09
558,73	16876,80
558,93	17185,27
559,13	17332,22
559,33	17546,61
559,52	17797,10
559,72	18156,78
559,92	18589,67
560,12	18659,68
560,31	19084,38
560,51	19376,22
560,71	19558,10
560,90	19824,34
561,10	20255,18
561,30	20613,19
561,50	21260,86
561,69	21757,36
561,89	22391,72
562,09	23015,33
562,28	23627,67
562,48	24130,58
562,68	24621,06
562,87	25119,87
563,07	25359,61
563,27	26034,55
563,47	26325,74
563,66	27163,87
563,86	27686,87
564,06	28443,85
564,25	29555,26
564,45	32120,34
564,65	39440,04
564,84	54881,47
565,04	63425,21
565,24	63716,02
565,43	63823,28
565,63	63587,64
565,83	63479,86
566,02	63742,39
566,22	63765,17
566,42	63635,25
566,61	63566,01
566,81	63713,20
567,01	63824,56
567,20	63426,49
567,40	63567,80
567,60	63770,03
567,79	63737,40
567,99	63404,22
568,19	63568,95
568,38	63736,63
568,58	63752,63
568,78	63542,07
568,97	63598,65
569,17	63761,72
569,37	63862,19
569,56	63583,54
569,76	63595,45
569,96	63675,96
570,15	63668,92
570,35	63695,41
570,55	63643,44
570,74	63732,92
570,94	63713,59
571,13	63542,33
571,33	63586,61
571,53	63657,91
571,72	63700,92
571,92	63735,99
572,12	63567,41
572,31	63696,82
572,51	63676,60
572,71	63494,07
572,90	63558,07
573,10	63641,91
573,29	63782,07
573,49	63667,00
573,69	63529,91
573,88	63556,28
574,08	63713,59
574,28	63457,21
574,47	63571,38
574,67	63669,17
574,86	63727,54
575,06	63399,86
575,26	63533,88
575,45	63679,92
575,65	63783,86
575,84	63371,07
576,04	63646,00
576,24	63569,08
576,43	63755,32
576,63	63643,83
576,82	63604,02
577,02	63644,98
577,22	63771,19
577,41	63602,10
577,61	63388,73
577,80	63683,12
578,00	63658,55
578,20	63570,87
578,39	63395,38
578,59	63618,74
578,78	63851,95
578,98	63527,99
579,17	63647,80
579,37	63746,61
579,57	63734,07
579,76	63536,18
579,96	63627,06
580,15	63654,32
580,35	63762,87
580,55	63694,00
580,74	63638,58
580,94	63603,38
581,13	63743,80
581,33	63634,61
581,52	63617,97
581,72	63662,90
581,91	63626,93
582,11	63520,57
582,31	63564,47
582,50	63687,09
582,70	63547,57
582,89	63437,24
583,09	63524,53
583,28	63544,76
583,48	63756,72
583,67	63675,32
583,87	63634,10
584,07	63628,60
584,26	63716,92
584,46	63628,73
584,65	63646,90
584,85	63767,86
585,04	63779,51
585,24	63596,21
585,43	63598,13
585,63	63600,82
585,82	63861,04
586,02	63447,10
586,21	63719,48
586,41	63508,66
586,61	63744,82
586,80	63561,40
587,00	63524,66
587,19	63595,57
587,39	63698,87
587,58	63558,84
587,78	63564,73
587,97	63670,20
588,17	63736,76
588,36	63542,33
588,56	63582,52
588,75	63626,68
588,95	63747,76
589,14	63652,79
589,34	63578,17
589,53	63600,44
589,73	63739,32
589,92	63592,50
590,12	63478,07
590,31	63635,64
590,51	63742,39
590,70	63565,88
590,90	63758,00
591,09	63700,79
591,29	63783,99
591,48	63601,72
591,68	63603,25
591,87	63775,28
592,07	63792,56
592,26	63657,14
592,46	63561,40
592,65	63671,60
592,85	63599,29
593,04	63694,26
593,24	63692,08
593,43	63607,73
593,63	63756,47
593,82	63631,03
594,01	63686,71
594,21	63744,44
594,40	63732,15
594,60	63599,41
594,79	63511,09
594,99	63696,95
595,18	63758,77
595,38	63427,38
595,57	63472,95
595,77	63640,37
595,96	63663,92
596,16	63684,92
596,35	63642,16
596,54	63588,53
596,74	63677,49
596,93	63510,84
597,13	63552,18
597,32	63675,57
597,52	63711,03
597,71	63656,12
597,91	63446,97
598,10	63618,74
598,29	63617,21
598,49	63562,68
598,68	63587,89
598,88	63558,45
599,07	63763,25
599,27	63674,16
599,46	63698,36
599,65	63619,13
599,85	63733,56
600,04	63667,12
600,24	63608,25
600,43	63580,34
600,63	63667,12
600,82	63700,66
601,01	63616,82
601,21	63638,07
601,40	63758,13
601,60	63561,78
601,79	63565,24
601,99	63731,25
602,18	63821,75
602,37	63559,86
602,57	63520,95
602,76	63798,71
602,96	63645,49
603,15	63580,60
603,34	63627,57
603,54	63763,51
603,73	63784,50
603,93	63544,63
604,12	63635,00
604,31	63674,80
604,51	63739,44
604,70	63425,08
604,90	63664,44
605,09	63672,63
605,28	63651,76
605,48	63522,36
605,67	63523,51
605,86	63607,86
606,06	63758,00
606,25	63554,49
606,45	63621,43
606,64	63630,39
606,83	63777,97
607,03	63423,16
607,22	63590,97
607,41	63495,61
607,61	63705,78
607,80	63585,21
608,00	63699,64
608,19	63519,29
608,38	63719,48
608,58	63648,82
608,77	63497,78
608,96	63684,02
609,16	63746,87
609,35	63757,24
609,54	63564,09
609,74	63646,64
609,93	63723,57
610,12	63591,61
610,32	63584,31
610,51	63714,48
610,71	63696,44
610,90	63624,89
611,09	63540,41
611,29	63619,64
611,48	63667,25
611,67	63645,75
611,87	63749,17
612,06	63614,77
612,25	63743,16
612,45	63581,75
612,64	63490,49
612,83	63722,42
613,03	63732,66
613,22	63478,20
613,41	63509,69
613,61	63581,37
613,80	63650,36
613,99	63678,90
614,18	63728,56
614,38	63648,69
614,57	63809,97
614,76	63455,03
614,96	63534,13
615,15	63755,06
615,34	63797,68
615,54	63694,52
615,73	63612,73
615,92	63670,84
616,12	63778,35
616,31	63604,66
616,50	63814,96
616,69	63628,21
616,89	63842,35
617,08	63644,72
617,27	63496,25
617,47	63597,88
617,66	63737,01
617,85	63354,94
618,05	63747,76
618,24	63594,17
618,43	63727,16
618,62	63453,50
618,82	63482,42
619,01	63716,40
619,20	63688,63
619,40	63603,00
619,59	63493,69
619,78	63690,42
619,97	63739,19
620,17	63419,45
620,36	63673,01
620,55	63678,26
620,74	63683,12
620,94	63447,48
621,13	63529,27
621,32	63639,86
621,51	63729,84
621,71	63591,35
621,90	63634,87
622,09	63538,87
622,29	63749,43
622,48	63641,65
622,67	63646,26
622,86	63641,52
623,06	63739,57
623,25	63794,23
623,44	63566,77
623,63	63803,19
623,83	63796,15
624,02	63660,21
624,21	63755,06
624,40	63693,62
624,59	63749,43
624,79	63585,97
624,98	63645,62
625,17	63559,22
625,36	63815,35
625,56	63505,97
625,75	63616,44
625,94	63631,54
626,13	63682,74
626,33	63618,61
626,52	63554,87
626,71	63724,08
626,90	63787,83
627,09	63614,90
627,29	63633,59
627,48	63739,32
627,67	63734,96
627,86	63672,50
628,05	63749,43
628,25	63640,24
628,44	63697,46
628,63	63434,30
628,82	63526,07
629,02	63686,58
629,21	63769,27
629,40	63370,43
629,59	63605,81
629,78	63673,78
629,98	63742,13
630,17	63526,33
630,36	63616,57
630,55	63719,86
630,74	63781,81
630,93	63613,11
631,13	63559,09
631,32	63652,92
631,51	63731,00
631,70	63516,73
631,89	63594,42
632,09	63738,29
632,28	63675,32
632,47	63654,58
632,66	63422,90
632,85	63668,66
633,04	63740,98
633,24	63627,45
633,43	63501,37
633,62	63611,45
633,81	63666,23
634,00	63359,29
634,19	63438,78
634,39	63685,56
634,58	63712,44
634,77	63549,37
634,96	63586,10
635,15	63683,76
635,34	63802,03
635,54	63539,25
635,73	63531,06
635,92	63659,06
636,11	63804,72
636,30	63696,18
636,49	63771,19
636,68	63742,13
636,88	63759,80
637,07	63704,76
637,26	63582,13
637,45	63652,28
637,64	63610,42
637,83	63641,01
638,02	63579,06
638,21	63760,31
638,41	63720,12
638,60	63606,07
638,79	63698,48
638,98	63779,51
639,17	63790,51
639,36	63548,98
639,55	63600,44
639,74	63708,72
639,94	63863,09
640,13	63720,24
640,32	63585,97
640,51	63653,68
640,70	63683,64
640,89	63586,49
641,08	63655,73
641,27	63697,72
641,46	63766,07
641,66	63582,26
641,85	63604,41
642,04	63596,98
642,23	63768,11
642,42	63387,83
642,61	63642,29
642,80	63550,77
642,99	63682,87
643,18	63534,39
643,37	63728,69
643,56	63635,00
643,76	63834,16
643,95	63638,58
644,14	63544,37
644,33	63596,09
644,52	63736,76
644,71	63500,86
644,90	63507,38
645,09	63649,84
645,28	63728,05
645,47	63501,50
645,66	63569,21
645,85	63613,62
646,04	63755,32
646,24	63739,96
646,43	63314,49
646,62	63733,56
646,81	63758,00
647,00	63728,31
647,19	63529,40
647,38	63690,42
647,57	63803,95
647,76	63638,84
647,95	63655,86
648,14	63646,13
648,33	63815,73
648,52	63593,91
648,71	63594,68
648,90	63727,16
649,09	63660,60
649,28	63576,76
649,47	63575,22
649,66	63708,47
649,85	63683,89
650,05	63664,56
650,24	63614,01
650,43	63600,05
650,62	63844,53
650,81	63637,68
651,00	63507,51
651,19	63679,67
651,38	63822,13
651,57	63644,72
651,76	63478,71
651,95	63707,06
652,14	63799,99
652,33	63618,36
652,52	63403,19
652,71	63789,11
652,90	63697,08
653,09	63619,13
653,28	63568,31
653,47	63593,40
653,66	63643,96
653,85	63552,31
654,04	63703,73
654,23	63870,51
654,42	63645,49
654,61	63422,78
654,80	63400,25
654,99	63626,42
655,18	63699,51
655,37	63560,37
655,56	63449,78
655,75	50544,76
655,94	60390,50
656,13	43239,53
656,32	47957,28
656,51	26784,62
656,70	38157,50
656,89	4685,62
657,08	8718,20
657,27	4563,51
657,46	4548,54
657,65	4572,09
657,84	4629,95
658,03	4590,52
658,22	4561,21
658,40	4538,55
658,59	4486,72
658,78	4511,93
658,97	4448,57
659,16	4432,32
659,35	4437,05
659,54	4374,59
659,73	4347,58
659,92	4336,45
660,11	4278,72
660,30	4238,78
660,49	4232,77
660,68	4230,08
660,87	4191,04
661,06	4135,23
661,25	4117,95
661,44	4092,99
661,63	4031,68
661,82	4022,72
662,01	3996,36
662,19	3962,82
662,38	3939,14
662,57	3898,56
662,76	3836,49
662,95	3849,16
663,14	3845,19
663,33	3853,38
663,52	3860,55
663,71	3879,49
663,90	3925,96
664,09	3944,90
664,28	4035,14
664,47	4165,06
664,65	4369,47
664,84	4609,34
665,03	4816,57
665,22	4977,84
665,41	4999,35
665,60	4841,78
665,79	4694,97
665,98	4433,34
666,17	4206,66
666,36	3945,41
666,55	3809,99
666,73	3666,89
666,92	3592,39
667,11	3521,74
667,30	3440,97
667,49	3412,43
667,68	3309,65
667,87	3329,36
668,06	3281,36
668,25	3235,41
668,43	3234,77
668,62	3232,21
668,81	3186,51
669,00	3161,55
669,19	3123,28
669,38	3123,28
669,57	3081,04
669,76	3055,06
669,94	3050,45
670,13	3025,75
670,32	2962,26
670,51	3006,80
670,70	2986,96
670,89	2973,78
671,08	2968,40
671,26	2957,39
671,45	3022,29
671,64	3001,94
671,83	3102,54
672,02	3416,65
672,21	3732,17
672,40	4200,77
672,58	4604,73
672,77	4910,65
672,96	4995,64
673,15	4901,30
673,34	4564,54
673,53	4185,28
673,71	3793,35
673,90	3529,67
674,09	3346,12
674,28	3168,59
674,47	3006,93
674,66	2923,48
674,84	2832,98
675,03	2710,87
675,22	2684,63
675,41	2643,80
675,60	2574,30
675,79	2519,13
675,97	2500,31
676,16	2442,07
676,35	2445,66
676,54	2406,88
676,73	2395,48
676,91	2364,12
677,10	2312,92
677,29	2284,64
677,48	2254,30
677,67	2244,06
677,86	2242,91
678,04	2229,21
678,23	2220,89
678,42	2226,27
678,61	2227,04
678,80	2246,62
678,98	2254,94
679,17	2248,54
679,36	2202,46
679,55	2193,12
679,73	2191,20
679,92	2200,16
680,11	2170,21
680,30	2186,85
680,49	2133,98
680,67	2146,78
680,86	2105,95
681,05	2086,62
681,24	2045,54
681,42	2062,56
681,61	2048,61
681,80	1996,90
681,99	2030,43
682,18	2014,56
682,36	2019,94
682,55	1975,27
682,74	1948,51
682,93	1976,03
683,11	1946,21
683,30	1657,96
683,49	1927,65
683,68	2051,55
683,86	2262,88
684,05	2589,14
684,24	2980,56
684,43	3303,76
684,61	3578,57
684,80	3704,90
684,99	3601,74
685,18	3351,63
685,36	3076,05
685,55	2783,83
685,74	2555,35
685,93	2404,70
686,11	2309,85
686,30	2231,52
686,49	2183,77
686,67	2139,87
686,86	2082,02
687,05	1985,38
687,24	1957,22
687,42	1915,36
687,61	1863,52
687,80	1860,32
687,99	1828,71
688,17	1802,85
688,36	1756,39
688,55	1760,10
688,73	1693,80
688,92	1694,05
689,11	1692,90
689,29	1695,72
689,48	1733,99
689,67	1709,67
689,86	1762,66
690,04	1770,08
690,23	1804,64
690,42	1935,07
690,60	2047,97
690,79	2265,69
690,98	2447,83
691,16	2611,54
691,35	2702,81
691,54	2690,01
691,72	2630,87
691,91	2499,55
692,10	2415,07
692,29	2337,63
692,47	2357,85
692,66	2617,56
692,85	4026,31
693,03	10403,94
693,22	26203,89
693,41	50326,66
693,59	63730,23
693,78	63615,03
693,97	63527,86
694,15	63665,20
694,34	63758,52
694,53	63485,62
694,71	63449,91
694,90	63705,01
695,09	63777,59
695,27	63559,73
695,46	63598,26
695,64	63634,36
695,83	63726,00
696,02	63605,05
696,20	50558,84
696,39	17438,07
696,58	6860,06
696,76	5445,55
696,95	4448,96
697,14	3652,42
697,32	3094,86
697,51	2674,39
697,70	2336,60
697,88	2087,39
698,07	1948,90
698,25	1799,91
698,44	1746,53
698,63	1636,20
698,81	1566,06
699,00	1514,98
699,19	1492,33
699,37	1498,35
699,56	1581,80
699,74	1771,75
699,93	2061,66
700,12	2390,36
700,30	2761,30
700,49	3078,61
700,67	3178,70
700,86	3073,36
701,05	2904,66
701,23	2619,74
701,42	2356,19
701,60	2112,74
701,79	1962,72
701,98	1857,00
702,16	1776,10
702,35	1719,01
702,53	1677,67
702,72	1774,56
702,91	2043,49
703,09	3398,22
703,28	8593,15
703,46	19556,31
703,65	35438,18
703,83	52650,59
704,02	63727,03
704,21	63357,11
704,39	63331,26
704,58	63716,66
704,76	63777,97
704,95	63466,55
705,13	55699,76
705,32	32983,43
705,51	22673,70
705,69	16960,89
705,88	12900,03
706,06	10139,88
706,25	7980,55
706,43	6340,77
706,62	5069,36
706,80	4081,22
706,99	3401,55
707,18	2852,18
707,36	2476,63
707,55	2219,61
707,73	2043,10
707,92	1924,83
708,10	1857,64
708,29	1801,44
708,47	1719,14
708,66	1638,12
708,84	1557,86
709,03	1462,76
709,21	1451,75
709,40	1406,70
709,59	1365,87
709,77	1374,96
709,96	1379,56
710,14	1415,53
710,33	1393,00
710,51	1344,24
710,70	1354,86
710,88	1384,17
711,07	1474,03
711,25	1950,18
711,44	2990,93
711,62	4579,64
711,81	6396,70
711,99	8244,48
712,18	9643,63
712,36	10078,44
712,55	9619,44
712,73	8505,21
712,92	7053,33
713,10	5631,02
713,29	4460,09
713,47	3586,51
713,66	3011,03
713,84	2541,02
714,03	2234,59
714,21	1987,04
714,40	1764,97
714,58	1588,07
714,77	1518,44
714,95	1409,00
715,14	1342,96
715,32	1270,89
715,51	1247,98
715,69	1242,22
715,87	1219,69
716,06	1171,05
716,24	1165,68
716,43	1147,63
716,61	1149,55
716,80	1102,45
716,98	1146,48
717,17	1123,18
717,35	1169,90
717,54	1240,05
717,72	1297,64
717,91	1387,37
718,09	1446,38
718,27	1461,35
718,46	1437,55
718,64	1432,94
718,83	1375,72
719,01	1320,56
719,20	1270,38
719,38	1223,28
719,57	1203,05
719,75	1134,70
719,93	1164,65
720,12	1125,23
720,30	1140,21
720,49	1129,97
720,67	1118,83
720,86	1095,92
721,04	1099,25
721,22	1106,03
721,41	1101,55
721,59	1101,81
721,78	1088,24
721,96	1116,91
722,14	1083,25
722,33	1118,96
722,51	1096,94
722,70	1091,57
722,88	1098,61
723,06	1117,55
723,25	1167,21
723,43	1222,13
723,62	1591,02
723,80	2959,70
723,98	6280,22
724,17	11347,28
724,35	17523,57
724,54	23506,71
724,72	29057,22
724,90	31180,96
725,09	30343,09
725,27	26736,10
725,46	21974,58
725,64	16874,37
725,82	12504,26
726,01	9439,60
726,19	7297,30
726,38	5677,35
726,56	4568,25
726,74	3716,17
726,93	3086,67
727,11	2578,52
727,29	2199,01
727,48	1923,30
727,66	1751,65
727,84	1638,89
728,03	1549,54
728,21	1531,62
728,40	1571,43
728,58	1591,78
728,76	1639,78
728,95	1610,47
729,13	1599,59
729,31	1486,70
729,50	1430,63
729,68	1357,42
729,86	1275,50
730,05	1261,93
730,23	1171,82
730,41	1179,50
730,60	1111,02
730,78	1132,40
730,96	1134,70
731,15	1105,39
731,33	1098,48
731,51	1097,58
731,70	1198,83
731,88	1212,78
732,06	1358,19
732,25	1492,07
732,43	1672,68
732,61	1889,64
732,80	2002,91
732,98	2061,66
733,16	2024,29
733,34	1917,28
733,53	1810,53
733,71	1718,89
733,89	1918,69
734,08	2140,13
734,26	2533,85
734,44	3106,77
734,63	4118,08
734,81	7566,22
734,99	18271,47
735,18	38777,52
735,36	63325,11
735,54	63690,68
735,72	63774,64
735,91	63492,66
736,09	63583,03
736,27	63726,00
736,46	63773,62
736,64	63715,76
736,82	63386,81
737,00	63743,92
737,19	63744,05
737,37	63336,25
737,55	63696,95
737,73	63760,82
737,92	55590,19
738,10	19564,89
738,28	7606,67
738,47	6050,08
738,65	5049,39
738,83	4287,17
739,01	3582,03
739,20	3054,93
739,38	2658,39
739,56	2332,12
739,74	2098,78
739,93	1894,37
740,11	1788,26
740,29	1739,37
740,47	1736,42
740,66	1740,39
740,84	1779,94
741,02	1796,45
741,20	1857,51
741,38	1770,08
741,57	1678,44
741,75	1567,85
741,93	1463,79
742,11	1384,43
742,30	1367,15
742,48	1300,33
742,66	1260,14
742,84	1224,43
743,03	1218,67
743,21	1223,53
743,39	1210,22
743,57	1229,93
743,75	1249,64
743,94	1277,16
744,12	1322,22
744,30	1421,16
744,48	1524,07
744,66	1558,25
744,85	1565,42
745,03	1612,90
745,21	1631,46
745,39	1655,65
745,57	1659,11
745,76	1691,62
745,94	1768,55
746,12	1822,95
746,30	1885,28
746,48	2033,89
746,67	3053,65
746,85	7318,67
747,03	19023,84
747,21	38056,38
747,39	61171,80
747,57	63722,68
747,76	63493,30
747,94	63707,70
748,12	63793,07
748,30	63672,12
748,48	63663,67
748,67	63741,11
748,85	63664,31
749,03	63563,70
749,21	63523,89
749,39	63742,26
749,57	63819,70
749,75	63630,01
749,94	63633,21
750,12	63821,49
750,30	63711,80
750,48	63577,14
750,66	63702,96
750,84	63743,92
751,03	63730,74
751,21	63438,39
751,39	63544,89
751,57	63691,06
751,75	63644,72
751,93	60139,50
752,11	34879,60
752,29	3970,76
752,48	3294,29
752,66	2784,85
752,84	2485,47
753,02	2201,57
753,20	2010,47
753,38	1860,84
753,56	1750,25
753,74	1658,73
753,93	1610,98
754,11	1538,66
754,29	1518,82
754,47	1506,28
754,65	1467,11
754,83	1494,76
755,01	1490,67
755,19	1480,04
755,37	1474,28
755,56	1495,02
755,74	1451,24
755,92	1499,75
756,10	1503,59
756,28	1517,54
756,46	1504,23
756,64	1511,02
756,82	1532,65
757,00	1570,79
757,18	1687,27
757,36	1801,32
757,55	1942,11
757,73	2075,23
757,91	2174,81
758,09	2283,23
758,27	2347,48
758,45	2435,67
758,63	2420,57
758,81	2461,79
758,99	2526,30
759,17	2720,98
759,35	3077,20
759,53	3887,81
759,71	7137,30
759,89	21380,15
760,08	63510,84
760,26	63702,32
760,44	63742,77
760,62	63627,96
760,80	63767,09
760,98	63731,38
761,16	63851,19
761,34	63566,52
761,52	63605,17
761,70	63680,82
761,88	63807,28
762,06	63339,45
762,24	63502,26
762,42	63756,21
762,60	63825,59
762,78	63467,96
762,96	63551,67
763,14	63684,66
763,32	63806,77
763,50	63284,92
763,68	63510,33
763,86	63769,39
764,04	63849,14
764,22	63572,28
764,40	63632,18
764,58	63904,94
764,76	63784,88
764,94	63754,16
765,12	63594,04
765,30	63768,24
765,48	63805,23
765,66	63486,90
765,84	63509,94
766,02	63721,91
766,20	63723,44
766,38	63506,61
766,56	63482,30
766,74	63699,25
766,92	63819,31
767,10	63523,00
767,28	63545,27
767,46	63784,37
767,64	63858,23
767,82	63621,69
768,00	63503,93
768,18	63718,58
768,36	63841,59
768,54	63462,97
768,72	63564,98
768,90	63515,83
769,08	63908,02
769,26	63528,12
769,44	63656,12
769,62	63764,02
769,80	63779,38
769,98	63707,06
770,16	63596,09
770,34	63756,98
770,52	63779,63
770,70	63703,73
770,88	63391,67
771,06	63733,43
771,24	63813,43
771,42	63502,39
771,60	63609,40
771,78	63833,91
771,96	63750,20
772,13	63659,06
772,31	63563,83
772,49	63689,78
772,67	63784,88
772,85	63589,43
773,03	63487,93
773,21	63742,77
773,39	63804,08
773,57	63571,51
773,75	63714,36
773,93	63722,80
774,11	63812,15
774,29	63559,86
774,47	63471,93
774,64	63749,81
774,82	63802,55
775,00	63698,23
775,18	63501,24
775,36	58209,03
775,54	53022,17
775,72	15571,47
775,90	3402,96
776,08	1170,16
776,26	1111,79
776,43	1116,27
776,61	1081,46
776,79	1097,07
776,97	1096,56
777,15	1123,44
777,33	1142,89
777,51	1145,07
777,69	1122,80
777,87	1097,07
778,04	1135,34
778,22	1088,11
778,40	1049,71
778,58	1007,86
778,76	1026,42
778,94	1011,57
779,12	995,95
779,30	964,47
779,47	1006,06
779,65	996,85
779,83	961,91
780,01	945,52
780,19	957,68
780,37	973,17
780,55	929,39
780,73	934,64
780,90	951,54
781,08	965,87
781,26	920,43
781,44	950,39
781,62	928,24
781,80	925,30
781,97	943,09
782,15	965,87
782,33	950,64
782,51	951,92
782,69	958,83
782,87	965,49
783,04	976,88
783,22	986,74
783,40	953,97
783,58	969,59
783,76	969,33
783,94	980,34
784,11	977,39
784,29	982,13
784,47	978,42
784,65	989,04
784,83	978,55
785,01	974,71
785,18	953,07
785,36	983,92
785,54	959,22
785,72	984,30
785,90	1081,46
786,07	1049,58
786,25	1172,85
786,43	1206,89
786,61	1203,69
786,79	1216,37
786,96	1210,35
787,14	1142,38
787,32	1112,69
787,50	1089,52
787,67	1062,90
787,85	1061,49
788,03	1071,09
788,21	1026,93
788,39	1042,03
788,56	1058,42
788,74	1082,48
788,92	1112,82
789,10	1138,54
789,27	1100,53
789,45	1151,60
789,63	1206,77
789,81	1199,85
789,99	1230,45
790,16	1251,31
790,34	1350,25
790,52	1428,07
790,70	1605,61
790,87	1835,36
791,05	2673,62
791,23	5724,07
791,41	13680,69
791,58	28465,49
791,76	47671,46
791,94	63858,10
792,12	63515,96
792,29	63475,64
792,47	63690,80
792,65	63815,86
792,82	63569,33
793,00	63526,58
793,18	63794,99
793,36	62868,29
793,53	37756,10
793,71	21654,71
793,89	17142,39
794,07	14015,66
794,24	11346,77
794,42	9496,94
794,60	7741,96
794,77	6565,79
794,95	5671,34
795,13	4953,01
795,31	4392,89
795,48	4010,95
795,66	3497,42
795,84	3164,24
796,01	2905,30
796,19	2712,79
796,37	2545,11
796,54	2457,95
796,72	2516,19
796,90	3179,47
797,08	5163,70
797,25	10237,67
797,43	18357,48
797,61	28859,59
797,78	40515,73
797,96	52807,26
798,14	63668,28
798,31	63829,81
798,49	63468,09
798,67	63729,72
798,84	63657,01
799,02	63814,83
799,20	63514,55
799,37	63537,85
799,55	63756,34
799,73	63854,51
799,90	63547,57
800,08	63480,25
800,26	63789,62
800,43	47507,50
800,61	19599,96
800,79	14980,89
800,96	12362,05
801,14	10375,91
801,32	8736,89
801,49	7518,73
801,67	6374,17
801,84	5623,08
802,02	4945,33
802,20	4422,59
802,37	3921,60
802,55	3511,24
802,73	3122,38
802,90	2882,39
803,08	2649,82
803,26	2472,28
803,43	2265,69
803,61	2179,04
803,78	2058,72
803,96	1997,54
804,14	1934,43
804,31	1967,59
804,49	1977,31
804,67	1989,99
804,84	2051,04
805,02	2118,50
805,19	2183,65
805,37	2271,84
805,55	2408,41
805,72	2558,94
805,90	2779,73
806,07	2965,59
806,25	3242,32
806,43	3725,77
806,60	4885,17
806,78	8409,47
806,95	16259,98
807,13	31105,45
807,30	50690,55
807,48	63839,15
807,66	63631,80
807,83	63408,44
808,01	63726,52
808,18	63749,30
808,36	63358,65
808,54	63581,88
808,71	63709,49
808,89	63821,36
809,06	63649,20
809,24	63484,47
809,41	63786,29
809,59	63836,21
809,76	63441,08
809,94	63586,10
810,12	63751,86
810,29	63735,35
810,47	63488,70
810,64	63376,70
810,82	63701,17
810,99	63732,53
811,17	63597,11
811,34	63491,90
811,52	63745,97
811,69	63809,20
811,87	63649,46
812,05	63466,30
812,22	63810,48
812,40	63787,83
812,57	63645,24
812,75	63414,84
812,92	63806,90
813,10	63742,77
813,27	63664,18
813,45	63563,19
813,62	63779,51
813,80	63726,90
813,97	63475,38
814,15	63506,87
814,32	63790,64
814,50	63793,97
814,67	63548,60
814,85	63541,05
815,02	63856,95
815,20	63791,41
815,37	63604,15
815,55	63511,61
815,72	63782,83
815,90	63792,95
816,07	63567,93
816,25	63490,62
816,42	63778,99
816,60	63800,88
816,77	63516,85
816,95	63660,85
817,12	63733,81
817,30	63821,11
817,47	63595,45
817,65	63629,24
817,82	63776,95
818,00	63872,56
818,17	63691,32
818,35	63378,23
818,52	63691,96
818,70	63694,00
818,87	63477,30
819,04	63465,66
819,22	63834,03
819,39	63766,19
819,57	63404,09
819,74	63630,65
819,92	63727,16
820,09	63898,67
820,27	63500,86
820,44	63439,42
820,62	63810,61
820,79	63798,83
820,96	63601,21
821,14	63500,34
821,31	63746,10
821,49	63808,43
821,66	63548,73
821,84	63605,43
822,01	63727,80
822,18	63843,12
822,36	63650,61
822,53	63551,93
822,71	63753,91
822,88	63869,87
823,06	63463,86
823,23	63575,99
823,40	63783,35
823,58	63806,64
823,75	63614,90
823,93	63547,32
824,10	63820,98
824,27	63858,35
824,45	63558,20
824,62	63475,13
824,80	63799,35
824,97	63845,17
825,14	63669,43
825,32	63414,58
825,49	63830,71
825,67	63795,76
825,84	63630,01
826,01	63598,39
826,19	63612,21
826,36	63918,90
826,54	63506,23
826,71	63390,52
826,88	63836,34
827,06	63836,47
827,23	63410,49
827,40	63492,92
827,58	63798,58
827,75	63778,87
827,93	63297,85
828,10	63683,12
828,27	63807,67
828,45	63791,03
828,62	63353,40
828,79	63338,17
828,97	63776,05
829,14	63851,06
829,31	63658,55
829,49	63617,97
829,66	63803,57
829,83	63868,47
830,01	63479,61
830,18	63452,34
830,35	63768,24
830,53	63816,11
830,70	63635,76
830,87	63708,60
831,05	63647,28
831,22	63862,19
831,39	63321,91
831,57	63555,51
831,74	63811,38
831,91	63811,38
832,09	63524,66
832,26	63625,78
832,43	63794,87
832,61	63863,73
832,78	63359,80
832,95	63491,51
833,13	63790,39
833,30	63845,30
833,47	63727,67
833,65	63568,69
833,82	63725,11
833,99	63834,67
834,16	63682,61
834,34	63506,61
834,51	63799,99
834,68	63881,52
834,86	63555,64
835,03	63539,89
835,20	63831,60
835,38	63857,46
835,55	63582,26
835,72	63527,99
835,89	62141,00
836,07	63774,77
836,24	20479,56
836,41	45502,79
836,58	1828,71
836,76	2231,39
836,93	2483,55
837,10	3207,76
837,28	4406,97
837,45	6886,04
837,62	11186,65
837,79	18714,85
837,97	28597,45
838,14	40232,99
838,31	50033,54
838,48	57534,48
838,66	60130,79
838,83	59158,01
839,00	54302,28
839,17	49782,92
839,35	47082,93
839,52	50649,72
839,69	57947,15
839,86	63581,75
840,04	63697,33
840,21	63685,30
840,38	63569,85
840,55	63581,11
840,72	63828,40
840,90	63810,87
841,07	49205,27
841,24	34224,63
841,41	27727,19
841,59	23328,80
841,76	19523,03
841,93	16594,69
842,10	13932,33
842,27	11583,95
842,45	9620,97
842,62	8094,47
842,79	6829,72
842,96	5889,06
843,13	5042,48
843,31	4401,85
843,48	3815,75
843,65	3370,83
843,82	2833,88
843,99	2468,95
844,17	2024,55
844,34	1773,28
844,51	1474,41
844,68	1326,96
844,85	1160,30
845,02	1032,56
845,20	872,82
845,37	842,23
845,54	767,73
845,71	724,98
845,88	691,96
846,06	679,29
846,23	668,28
846,40	646,01
846,57	634,49
846,74	619,51
846,91	621,69
847,09	634,87
847,26	659,19
847,43	659,83
847,60	685,17
847,77	706,29
847,94	740,60
848,11	848,12
848,29	951,67
848,46	1210,99
848,63	1510,50
848,80	2045,41
848,97	2934,36
849,14	4398,65
849,31	6481,57
849,49	9421,30
849,66	12475,46
849,83	15479,70
850,00	17297,14
850,17	18314,47
850,34	17399,29
850,51	15719,44
850,68	13003,19
850,85	10525,28
851,03	8441,09
851,20	6921,37
851,37	5725,22
851,54	4833,21
851,71	4105,79
851,88	3578,95
852,05	2957,01
852,22	2615,26
852,39	2205,53
852,57	1960,93
852,74	1680,61
852,91	1527,91
853,08	1352,68
853,25	1257,96
853,42	1099,63
853,59	1028,85
853,76	877,55
853,93	823,80
854,10	754,29
854,27	647,93
854,44	579,32
854,62	548,34
854,79	521,59
854,96	479,35
855,13	456,57
855,30	423,55
855,47	415,35
855,64	417,66
855,81	371,19
855,98	362,49
856,15	366,71
856,32	399,99
856,49	373,75
856,66	345,72
856,83	391,67
857,00	343,16
857,17	393,08
857,34	352,12
857,51	349,05
857,69	367,99
857,86	364,28
858,03	363,00
858,20	377,21
858,37	393,59
858,54	388,47
858,71	402,55
858,88	400,63
859,05	382,84
859,22	359,03
859,39	388,35
859,56	347,39
859,73	372,47
859,90	389,63
860,07	379,26
860,24	379,00
860,41	336,51
860,58	374,27
860,75	357,75
860,92	339,07
861,09	339,83
861,26	354,43
861,43	354,68
861,60	336,12
861,77	330,23
861,94	347,77
862,11	340,35
862,28	368,38
862,45	330,49
862,62	319,74
862,79	382,20
862,96	374,91
863,13	401,02
863,30	406,27
863,47	484,86
863,64	541,05
863,81	593,91
863,98	730,36
864,15	912,88
864,32	1169,65
864,48	1470,95
864,65	1798,24
864,82	2062,82
864,99	2322,14
865,16	2450,91
865,33	2391,52
865,50	2219,36
865,67	1960,93
865,84	1649,64
866,01	1415,79
866,18	1227,25
866,35	1028,34
866,52	899,31
866,69	780,15
866,86	700,92
867,03	634,61
867,20	594,04
867,37	507,90
867,53	488,57
867,70	451,96
867,87	465,14
868,04	441,85
868,21	389,75
868,38	371,71
868,55	354,17
868,72	333,82
868,89	320,89
869,06	353,27
869,23	340,35
869,40	318,20
869,56	301,82
869,73	292,09
869,90	287,61
870,07	292,48
870,24	291,96
870,41	270,84
870,58	284,41
870,75	294,27
870,92	285,56
871,08	284,41
871,25	272,38
871,42	258,68
871,59	286,97
871,76	290,56
871,93	285,44
872,10	286,84
872,27	315,64
872,43	297,60
872,60	298,24
872,77	286,46
872,94	298,75
873,11	288,25
873,28	286,59
873,45	283,26
873,62	289,40
873,78	287,87
873,95	278,65
874,12	274,81
874,29	282,24
874,46	268,80
874,63	301,56
874,79	288,38
874,96	279,80
875,13	295,16
875,30	280,06
875,47	265,72
875,64	266,62
875,80	246,14
875,97	250,11
876,14	242,04
876,31	231,29
876,48	246,01
876,65	228,73
876,81	261,88
876,98	255,36
877,15	266,49
877,32	246,27
877,49	272,89
877,65	259,07
877,82	251,26
877,99	246,40
878,16	269,69
878,33	274,56
878,49	253,95
878,66	256,12
878,83	249,08
879,00	270,97
879,17	250,11
879,33	219,64
879,50	226,56
879,67	233,21
879,84	241,92
880,01	212,99
880,17	254,72
880,34	226,94
880,51	256,12
880,68	251,64
880,84	240,64
881,01	233,60
881,18	258,68
881,35	223,61
881,52	236,92
881,68	260,60
881,85	264,32
882,02	261,88
882,19	235,13
882,35	248,06
882,52	264,96
882,69	266,75
882,86	228,86
883,02	255,48
883,19	245,24
883,36	258,30
883,53	255,36
883,69	243,32
883,86	243,71
884,03	243,58
884,19	247,29
884,36	243,45
884,53	273,66
884,70	246,40
884,86	263,04
885,03	237,82
885,20	219,90
885,37	247,04
885,53	242,81
885,70	226,30
885,87	226,81
886,03	205,44
886,20	238,33
886,37	248,32
886,54	211,71
886,70	237,69
886,87	253,31
887,04	245,76
887,20	193,92
887,37	233,72
887,54	243,96
887,70	242,17
887,87	220,16
888,04	245,24
888,20	230,27
888,37	232,57
888,54	228,35
888,71	200,96
888,87	236,80
889,04	227,20
889,21	209,15
889,37	254,84
889,54	231,29
889,71	235,90
889,87	239,23
890,04	221,18
890,21	221,18
890,37	221,18
890,54	221,18
890,71	221,18
890,87	221,18
>>>>>End Processed Spectral Data<<<<<
